800.44463,1.11622
800.93901,1.11622
801.43340,1.11622
801.92778,1.11622
802.42217,1.11622
802.91655,1.11622
803.41093,1.11622
803.90532,1.11622
804.39970,1.11622
804.89408,1.11622
805.38847,1.11622
805.88285,1.11622
806.37723,1.11622
806.87162,1.11570
807.36600,1.11505
807.86038,1.11426
808.35477,1.11335
808.84915,1.11230
809.34353,1.11114
809.83792,1.10986
810.33230,1.10849
810.82668,1.10703
811.32107,1.10551
811.81545,1.10395
812.30984,1.10237
812.80422,1.10081
813.29860,1.09927
813.79299,1.09774
814.28737,1.09626
814.78175,1.09482
815.27614,1.09344
815.77052,1.09211
816.26490,1.09084
816.75929,1.08962
817.25367,1.08846
817.74805,1.08733
818.24244,1.08625
818.73682,1.08520
819.23120,1.08419
819.72559,1.08321
820.21997,1.08226
820.71436,1.08132
821.20874,1.08039
821.70312,1.07945
822.19751,1.07850
822.69189,1.07752
823.18627,1.07652
823.68066,1.07548
824.17504,1.07440
824.66942,1.07330
825.16381,1.07217
825.65819,1.07102
826.15257,1.06985
826.64696,1.06866
827.14134,1.06746
827.63572,1.06624
828.13011,1.06502
828.62449,1.06380
829.11887,1.06259
829.61326,1.06139
830.10764,1.06021
830.60203,1.05904
831.09641,1.05790
831.59079,1.05678
832.08518,1.05568
832.57956,1.05460
833.07394,1.05352
833.56833,1.05245
834.06271,1.05137
834.55709,1.05030
835.05148,1.04923
835.54586,1.04816
836.04024,1.04709
836.53463,1.04603
837.02901,1.04497
837.52339,1.04392
838.01778,1.04287
838.51216,1.04181
839.00655,1.04076
839.50093,1.03971
839.99531,1.03867
840.48970,1.03764
840.98408,1.03661
841.47846,1.03559
841.97285,1.03458
842.46723,1.03357
842.96161,1.03256
843.45600,1.03154
843.95038,1.03052
844.44476,1.02949
844.93915,1.02845
845.43353,1.02740
845.92791,1.02635
846.42230,1.02530
846.91668,1.02425
847.41106,1.02320
847.90545,1.02217
848.39983,1.02114
848.89422,1.02013
849.38860,1.01912
849.88298,1.01814
850.37737,1.01718
850.87175,1.01623
851.36613,1.01531
851.86052,1.01441
852.35490,1.01353
852.84928,1.01266
853.34367,1.01180
853.83805,1.01095
854.33243,1.01010
854.82682,1.00925
855.32120,1.00840
855.81558,1.00755
856.30997,1.00669
856.80435,1.00582
857.29874,1.00494
857.79312,1.00405
858.28750,1.00314
858.78189,1.00223
859.27627,1.00130
859.77065,1.00036
860.26504,0.99941
860.75942,0.99846
861.25380,0.99752
861.74819,0.99658
862.24257,0.99564
862.73695,0.99472
863.23134,0.99380
863.72572,0.99290
864.22010,0.99201
864.71449,0.99114
865.20887,0.99029
865.70326,0.98947
866.19764,0.98867
866.69202,0.98790
867.18641,0.98716
867.68079,0.98644
868.17517,0.98575
868.66956,0.98507
869.16394,0.98439
869.65832,0.98373
870.15271,0.98306
870.64709,0.98240
871.14147,0.98174
871.63586,0.98108
872.13024,0.98042
872.62462,0.97976
873.11901,0.97911
873.61339,0.97846
874.10777,0.97781
874.60216,0.97717
875.09654,0.97653
875.59093,0.97591
876.08531,0.97531
876.57969,0.97472
877.07408,0.97416
877.56846,0.97361
878.06284,0.97308
878.55723,0.97257
879.05161,0.97207
879.54599,0.97159
880.04038,0.97111
880.53476,0.97064
881.02914,0.97016
881.52353,0.96969
882.01791,0.96921
882.51229,0.96874
883.00668,0.96827
883.50106,0.96781
883.99545,0.96735
884.48983,0.96691
884.98421,0.96648
885.47860,0.96608
885.97298,0.96569
886.46736,0.96533
886.96175,0.96499
887.45613,0.96467
887.95051,0.96437
888.44490,0.96409
888.93928,0.96382
889.43366,0.96356
889.92805,0.96330
890.42243,0.96304
890.91681,0.96278
891.41120,0.96250
891.90558,0.96221
892.39996,0.96189
892.89435,0.96155
893.38873,0.96118
893.88312,0.96080
894.37750,0.96040
894.87188,0.95999
895.36627,0.95958
895.86065,0.95916
896.35503,0.95875
896.84942,0.95835
897.34380,0.95797
897.83818,0.95762
898.33257,0.95728
898.82695,0.95698
899.32133,0.95670
899.81572,0.95646
900.31010,0.95625
900.80448,0.95606
901.29887,0.95590
901.79325,0.95577
902.28764,0.95566
902.78202,0.95557
903.27640,0.95548
903.77079,0.95541
904.26517,0.95533
904.75955,0.95526
905.25394,0.95519
905.74832,0.95513
906.24270,0.95506
906.73709,0.95499
907.23147,0.95491
907.72585,0.95484
908.22024,0.95476
908.71462,0.95469
909.20900,0.95461
909.70339,0.95453
910.19777,0.95445
910.69216,0.95437
911.18654,0.95430
911.68092,0.95423
912.17531,0.95417
912.66969,0.95412
913.16407,0.95407
913.65846,0.95404
914.15284,0.95401
914.64722,0.95399
915.14161,0.95399
915.63599,0.95400
916.13037,0.95403
916.62476,0.95407
917.11914,0.95413
917.61352,0.95420
918.10791,0.95428
918.60229,0.95437
919.09667,0.95447
919.59106,0.95459
920.08544,0.95471
920.57983,0.95484
921.07421,0.95498
921.56859,0.95512
922.06298,0.95527
922.55736,0.95542
923.05174,0.95558
923.54613,0.95575
924.04051,0.95593
924.53489,0.95612
925.02928,0.95633
925.52366,0.95656
926.01804,0.95681
926.51243,0.95708
927.00681,0.95737
927.50119,0.95769
927.99558,0.95804
928.48996,0.95841
928.98435,0.95881
929.47873,0.95923
929.97311,0.95969
930.46750,0.96016
930.96188,0.96066
931.45626,0.96118
931.95065,0.96171
932.44503,0.96225
932.93941,0.96280
933.43380,0.96336
933.92818,0.96392
934.42256,0.96448
934.91695,0.96505
935.41133,0.96561
935.90571,0.96618
936.40010,0.96675
936.89448,0.96732
937.38886,0.96789
937.88325,0.96847
938.37763,0.96906
938.87202,0.96965
939.36640,0.97026
939.86078,0.97087
940.35517,0.97151
940.84955,0.97216
941.34393,0.97284
941.83832,0.97354
942.33270,0.97426
942.82708,0.97501
943.32147,0.97579
943.81585,0.97660
944.31023,0.97743
944.80462,0.97830
945.29900,0.97921
945.79338,0.98016
946.28777,0.98114
946.78215,0.98217
947.27654,0.98325
947.77092,0.98437
948.26530,0.98553
948.75969,0.98675
949.25407,0.98800
949.74845,0.98930
950.24284,0.99064
950.73722,0.99202
951.23160,0.99343
951.72599,0.99487
952.22037,0.99633
952.71475,0.99782
953.20914,0.99931
953.70352,1.00081
954.19790,1.00231
954.69229,1.00378
955.18667,1.00524
955.68105,1.00666
956.17544,1.00805
956.66982,1.00938
957.16421,1.01067
957.65859,1.01189
958.15297,1.01305
958.64736,1.01413
959.14174,1.01515
959.63612,1.01609
960.13051,1.01695
960.62489,1.01775
961.11927,1.01846
961.61366,1.01912
962.10804,1.01971
962.60242,1.02024
963.09681,1.02073
963.59119,1.02119
964.08557,1.02161
964.57996,1.02200
965.07434,1.02237
965.56873,1.02272
966.06311,1.02306
966.55749,1.02339
967.05188,1.02371
967.54626,1.02403
968.04064,1.02434
968.53503,1.02465
969.02941,1.02496
969.52379,1.02525
970.01818,1.02554
970.51256,1.02582
971.00694,1.02608
971.50133,1.02634
971.99571,1.02658
972.49009,1.02681
972.98448,1.02702
973.47886,1.02723
973.97325,1.02742
974.46763,1.02760
974.96201,1.02778
975.45640,1.02794
975.95078,1.02810
976.44516,1.02824
976.93955,1.02838
977.43393,1.02851
977.92831,1.02862
978.42270,1.02873
978.91708,1.02883
979.41146,1.02892
979.90585,1.02899
980.40023,1.02905
980.89461,1.02910
981.38900,1.02913
981.88338,1.02915
982.37776,1.02915
982.87215,1.02914
983.36653,1.02912
983.86092,1.02908
984.35530,1.02904
984.84968,1.02898
985.34407,1.02892
985.83845,1.02885
986.33283,1.02877
986.82722,1.02869
987.32160,1.02861
987.81598,1.02853
988.31037,1.02844
988.80475,1.02835
989.29913,1.02826
989.79352,1.02817
990.28790,1.02807
990.78228,1.02797
991.27667,1.02785
991.77105,1.02773
992.26544,1.02760
992.75982,1.02746
993.25420,1.02730
993.74859,1.02714
994.24297,1.02696
994.73735,1.02677
995.23174,1.02657
995.72612,1.02636
996.22050,1.02613
996.71489,1.02590
997.20927,1.02566
997.70365,1.02541
998.19804,1.02516
998.69242,1.02491
999.18680,1.02466
999.68119,1.02441
1000.17557,1.02417
1000.66995,1.02393
1001.16434,1.02368
1001.65872,1.02344
1002.15311,1.02320
1002.64749,1.02296
1003.14187,1.02271
1003.63626,1.02247
1004.13064,1.02222
1004.62502,1.02197
1005.11941,1.02172
1005.61379,1.02146
1006.10817,1.02120
1006.60256,1.02093
1007.09694,1.02065
1007.59132,1.02036
1008.08571,1.02007
1008.58009,1.01977
1009.07447,1.01947
1009.56886,1.01916
1010.06324,1.01885
1010.55763,1.01854
1011.05201,1.01824
1011.54639,1.01793
1012.04078,1.01762
1012.53516,1.01731
1013.02954,1.01701
1013.52393,1.01671
1014.01831,1.01642
1014.51269,1.01613
1015.00708,1.01585
1015.50146,1.01557
1015.99584,1.01530
1016.49023,1.01503
1016.98461,1.01477
1017.47899,1.01451
1017.97338,1.01425
1018.46776,1.01399
1018.96214,1.01374
1019.45653,1.01348
1019.95091,1.01322
1020.44530,1.01295
1020.93968,1.01268
1021.43406,1.01241
1021.92845,1.01213
1022.42283,1.01185
1022.91721,1.01156
1023.41160,1.01127
1023.90598,1.01098
1024.40036,1.01069
1024.89475,1.01039
1025.38913,1.01010
1025.88351,1.00981
1026.37790,1.00953
1026.87228,1.00925
1027.36666,1.00898
1027.86105,1.00872
1028.35543,1.00847
1028.84982,1.00823
1029.34420,1.00800
1029.83858,1.00778
1030.33297,1.00757
1030.82735,1.00737
1031.32173,1.00718
1031.81612,1.00700
1032.31050,1.00683
1032.80488,1.00666
1033.29927,1.00650
1033.79365,1.00635
1034.28803,1.00619
1034.78242,1.00604
1035.27680,1.00590
1035.77118,1.00575
1036.26557,1.00559
1036.75995,1.00544
1037.25434,1.00528
1037.74872,1.00512
1038.24310,1.00495
1038.73749,1.00478
1039.23187,1.00461
1039.72625,1.00444
1040.22064,1.00427
1040.71502,1.00410
1041.20940,1.00393
1041.70379,1.00377
1042.19817,1.00361
1042.69255,1.00346
1043.18694,1.00333
1043.68132,1.00320
1044.17570,1.00309
1044.67009,1.00299
1045.16447,1.00289
1045.65885,1.00282
1046.15324,1.00275
1046.64762,1.00269
1047.14201,1.00264
1047.63639,1.00260
1048.13077,1.00256
1048.62516,1.00253
1049.11954,1.00250
1049.61392,1.00246
1050.10831,1.00243
1050.60269,1.00239
1051.09707,1.00235
1051.59146,1.00231
1052.08584,1.00227
1052.58022,1.00223
1053.07461,1.00220
1053.56899,1.00216
1054.06337,1.00213
1054.55776,1.00211
1055.05214,1.00209
1055.54653,1.00208
1056.04091,1.00207
1056.53529,1.00208
1057.02968,1.00209
1057.52406,1.00212
1058.01844,1.00215
1058.51283,1.00220
1059.00721,1.00226
1059.50159,1.00233
1059.99598,1.00240
1060.49036,1.00249
1060.98474,1.00258
1061.47913,1.00268
1061.97351,1.00279
1062.46789,1.00291
1062.96228,1.00303
1063.45666,1.00317
1063.95104,1.00330
1064.44543,1.00345
1064.93981,1.00359
1065.43420,1.00374
1065.92858,1.00389
1066.42296,1.00404
1066.91735,1.00419
1067.41173,1.00434
1067.90611,1.00448
1068.40050,1.00463
1068.89488,1.00478
1069.38926,1.00494
1069.88365,1.00509
1070.37803,1.00525
1070.87241,1.00541
1071.36680,1.00558
1071.86118,1.00576
1072.35556,1.00594
1072.84995,1.00613
1073.34433,1.00633
1073.83872,1.00655
1074.33310,1.00677
1074.82748,1.00700
1075.32187,1.00725
1075.81625,1.00750
1076.31063,1.00776
1076.80502,1.00802
1077.29940,1.00829
1077.79378,1.00857
1078.28817,1.00885
1078.78255,1.00913
1079.27693,1.00942
1079.77132,1.00971
1080.26570,1.00999
1080.76008,1.01028
1081.25447,1.01057
1081.74885,1.01086
1082.24324,1.01115
1082.73762,1.01145
1083.23200,1.01175
1083.72639,1.01205
1084.22077,1.01235
1084.71515,1.01267
1085.20954,1.01298
1085.70392,1.01331
1086.19830,1.01364
1086.69269,1.01397
1087.18707,1.01432
1087.68145,1.01467
1088.17584,1.01502
1088.67022,1.01539
1089.16460,1.01576
1089.65899,1.01614
1090.15337,1.01652
1090.64775,1.01691
1091.14214,1.01730
1091.63652,1.01770
1092.13091,1.01810
1092.62529,1.01850
1093.11967,1.01890
1093.61406,1.01931
1094.10844,1.01972
1094.60282,1.02014
1095.09721,1.02056
1095.59159,1.02099
1096.08597,1.02142
1096.58036,1.02185
1097.07474,1.02229
1097.56912,1.02274
1098.06351,1.02319
1098.55789,1.02365
1099.05227,1.02411
1099.54666,1.02457
1100.04104,1.02505
1100.53543,1.02552
1101.02981,1.02600
1101.52419,1.02648
1102.01858,1.02696
1102.51296,1.02744
1103.00734,1.02792
1103.50173,1.02840
1103.99611,1.02888
1104.49049,1.02935
1104.98488,1.02983
1105.47926,1.03030
1105.97364,1.03077
1106.46803,1.03123
1106.96241,1.03169
1107.45679,1.03215
1107.95118,1.03261
1108.44556,1.03306
1108.93994,1.03352
1109.43433,1.03397
1109.92871,1.03443
1110.42310,1.03488
1110.91748,1.03534
1111.41186,1.03581
1111.90625,1.03628
1112.40063,1.03675
1112.89501,1.03723
1113.38940,1.03772
1113.88378,1.03822
1114.37816,1.03872
1114.87255,1.03923
1115.36693,1.03976
1115.86131,1.04029
1116.35570,1.04083
1116.85008,1.04138
1117.34446,1.04194
1117.83885,1.04251
1118.33323,1.04309
1118.82762,1.04368
1119.32200,1.04429
1119.81638,1.04491
1120.31077,1.04554
1120.80515,1.04619
1121.29953,1.04685
1121.79392,1.04754
1122.28830,1.04824
1122.78268,1.04897
1123.27707,1.04972
1123.77145,1.05051
1124.26583,1.05132
1124.76022,1.05217
1125.25460,1.05307
1125.74898,1.05400
1126.24337,1.05499
1126.73775,1.05602
1127.23213,1.05712
1127.72652,1.05827
1128.22090,1.05950
1128.71529,1.06079
1129.20967,1.06216
1129.70405,1.06361
1130.19844,1.06514
1130.69282,1.06676
1131.18720,1.06846
1131.68159,1.07025
1132.17597,1.07212
1132.67035,1.07409
1133.16474,1.07614
1133.65912,1.07828
1134.15350,1.08050
1134.64789,1.08281
1135.14227,1.08521
1135.63665,1.08768
1136.13104,1.09023
1136.62542,1.09286
1137.11981,1.09556
1137.61419,1.09832
1138.10857,1.10115
1138.60296,1.10404
1139.09734,1.10698
1139.59172,1.10998
1140.08611,1.11302
1140.58049,1.11610
1141.07487,1.11922
1141.56926,1.12236
1142.06364,1.12552
1142.55802,1.12869
1143.05241,1.13186
1143.54679,1.13503
1144.04117,1.13818
1144.53556,1.14131
1145.02994,1.14440
1145.52433,1.14746
1146.01871,1.15046
1146.51309,1.15342
1147.00748,1.15631
1147.50186,1.15913
1147.99624,1.16188
1148.49063,1.16455
1148.98501,1.16713
1149.47939,1.16964
1149.97378,1.17205
1150.46816,1.17437
1150.96254,1.17660
1151.45693,1.17874
1151.95131,1.18079
1152.44569,1.18274
1152.94008,1.18460
1153.43446,1.18637
1153.92884,1.18804
1154.42323,1.18962
1154.91761,1.19112
1155.41200,1.19252
1155.90638,1.19385
1156.40076,1.19509
1156.89515,1.19625
1157.38953,1.19734
1157.88391,1.19836
1158.37830,1.19931
1158.87268,1.20021
1159.36706,1.20106
1159.86145,1.20185
1160.35583,1.20261
1160.85021,1.20332
1161.34460,1.20400
1161.83898,1.20465
1162.33336,1.20528
1162.82775,1.20589
1163.32213,1.20647
1163.81652,1.20704
1164.31090,1.20759
1164.80528,1.20812
1165.29967,1.20864
1165.79405,1.20914
1166.28843,1.20963
1166.78282,1.21010
1167.27720,1.21056
1167.77158,1.21100
1168.26597,1.21142
1168.76035,1.21183
1169.25473,1.21222
1169.74912,1.21260
1170.24350,1.21297
1170.73788,1.21332
1171.23227,1.21365
1171.72665,1.21398
1172.22103,1.21429
1172.71542,1.21460
1173.20980,1.21490
1173.70419,1.21519
1174.19857,1.21547
1174.69295,1.21576
1175.18734,1.21604
1175.68172,1.21632
1176.17610,1.21660
1176.67049,1.21689
1177.16487,1.21718
1177.65925,1.21748
1178.15364,1.21779
1178.64802,1.21811
1179.14240,1.21844
1179.63679,1.21878
1180.13117,1.21913
1180.62555,1.21948
1181.11994,1.21985
1181.61432,1.22023
1182.10871,1.22061
1182.60309,1.22100
1183.09747,1.22139
1183.59186,1.22178
1184.08624,1.22217
1184.58062,1.22256
1185.07501,1.22294
1185.56939,1.22332
1186.06377,1.22368
1186.55816,1.22404
1187.05254,1.22439
1187.54692,1.22472
1188.04131,1.22505
1188.53569,1.22536
1189.03007,1.22567
1189.52446,1.22597
1190.01884,1.22625
1190.51323,1.22653
1191.00761,1.22680
1191.50199,1.22707
1191.99638,1.22732
1192.49076,1.22757
1192.98514,1.22780
1193.47953,1.22803
1193.97391,1.22825
1194.46829,1.22846
1194.96268,1.22865
1195.45706,1.22884
1195.95144,1.22901
1196.44583,1.22916
1196.94021,1.22930
1197.43459,1.22942
1197.92898,1.22952
1198.42336,1.22961
1198.91774,1.22967
1199.41213,1.22973
1199.90651,1.22976
1200.40090,1.22978
1200.89528,1.22978
1201.38966,1.22977
1201.88405,1.22975
1202.37843,1.22971
1202.87281,1.22967
1203.36720,1.22962
1203.86158,1.22956
1204.35596,1.22949
1204.85035,1.22942
1205.34473,1.22935
1205.83911,1.22928
1206.33350,1.22921
1206.82788,1.22914
1207.32226,1.22907
1207.81665,1.22900
1208.31103,1.22893
1208.80542,1.22886
1209.29980,1.22879
1209.79418,1.22871
1210.28857,1.22863
1210.78295,1.22855
1211.27733,1.22847
1211.77172,1.22838
1212.26610,1.22829
1212.76048,1.22820
1213.25487,1.22810
1213.74925,1.22799
1214.24363,1.22789
1214.73802,1.22778
1215.23240,1.22768
1215.72678,1.22757
1216.22117,1.22746
1216.71555,1.22736
1217.20993,1.22726
1217.70432,1.22715
1218.19870,1.22705
1218.69309,1.22695
1219.18747,1.22685
1219.68185,1.22674
1220.17624,1.22664
1220.67062,1.22653
1221.16500,1.22641
1221.65939,1.22630
1222.15377,1.22618
1222.64815,1.22605
1223.14254,1.22592
1223.63692,1.22579
1224.13130,1.22566
1224.62569,1.22552
1225.12007,1.22539
1225.61445,1.22525
1226.10884,1.22511
1226.60322,1.22497
1227.09761,1.22483
1227.59199,1.22470
1228.08637,1.22456
1228.58076,1.22442
1229.07514,1.22429
1229.56952,1.22415
1230.06391,1.22402
1230.55829,1.22388
1231.05267,1.22374
1231.54706,1.22361
1232.04144,1.22347
1232.53582,1.22333
1233.03021,1.22320
1233.52459,1.22306
1234.01897,1.22293
1234.51336,1.22280
1235.00774,1.22267
1235.50212,1.22254
1235.99651,1.22241
1236.49089,1.22229
1236.98528,1.22216
1237.47966,1.22203
1237.97404,1.22190
1238.46843,1.22177
1238.96281,1.22163
1239.45719,1.22149
1239.95158,1.22135
1240.44596,1.22120
1240.94034,1.22105
1241.43473,1.22089
1241.92911,1.22073
1242.42349,1.22057
1242.91788,1.22040
1243.41226,1.22024
1243.90664,1.22008
1244.40103,1.21992
1244.89541,1.21977
1245.38980,1.21962
1245.88418,1.21948
1246.37856,1.21934
1246.87295,1.21921
1247.36733,1.21909
1247.86171,1.21897
1248.35610,1.21886
1248.85048,1.21876
1249.34486,1.21866
1249.83925,1.21857
1250.33363,1.21848
1250.82801,1.21839
1251.32240,1.21831
1251.81678,1.21824
1252.31116,1.21817
1252.80555,1.21810
1253.29993,1.21804
1253.79432,1.21799
1254.28870,1.21794
1254.78308,1.21789
1255.27747,1.21786
1255.77185,1.21783
1256.26623,1.21781
1256.76062,1.21780
1257.25500,1.21779
1257.74938,1.21779
1258.24377,1.21779
1258.73815,1.21780
1259.23253,1.21782
1259.72692,1.21785
1260.22130,1.21788
1260.71568,1.21792
1261.21007,1.21796
1261.70445,1.21801
1262.19883,1.21807
1262.69322,1.21814
1263.18760,1.21821
1263.68199,1.21829
1264.17637,1.21839
1264.67075,1.21849
1265.16514,1.21860
1265.65952,1.21873
1266.15390,1.21887
1266.64829,1.21902
1267.14267,1.21919
1267.63705,1.21937
1268.13144,1.21956
1268.62582,1.21977
1269.12020,1.21999
1269.61459,1.22022
1270.10897,1.22047
1270.60335,1.22073
1271.09774,1.22100
1271.59212,1.22128
1272.08651,1.22158
1272.58089,1.22188
1273.07527,1.22220
1273.56966,1.22253
1274.06404,1.22287
1274.55842,1.22323
1275.05281,1.22360
1275.54719,1.22398
1276.04157,1.22437
1276.53596,1.22478
1277.03034,1.22520
1277.52472,1.22564
1278.01911,1.22609
1278.51349,1.22655
1279.00787,1.22704
1279.50226,1.22753
1279.99664,1.22804
1280.49102,1.22857
1280.98541,1.22911
1281.47979,1.22966
1281.97418,1.23023
1282.46856,1.23081
1282.96294,1.23140
1283.45733,1.23201
1283.95171,1.23263
1284.44609,1.23326
1284.94048,1.23391
1285.43486,1.23457
1285.92924,1.23524
1286.42363,1.23594
1286.91801,1.23664
1287.41239,1.23737
1287.90678,1.23811
1288.40116,1.23887
1288.89554,1.23965
1289.38993,1.24044
1289.88431,1.24126
1290.37870,1.24209
1290.87308,1.24294
1291.36746,1.24380
1291.86185,1.24469
1292.35623,1.24559
1292.85061,1.24650
1293.34500,1.24744
1293.83938,1.24839
1294.33376,1.24936
1294.82815,1.25035
1295.32253,1.25136
1295.81691,1.25239
1296.31130,1.25344
1296.80568,1.25452
1297.30006,1.25561
1297.79445,1.25673
1298.28883,1.25788
1298.78322,1.25905
1299.27760,1.26024
1299.77198,1.26145
1300.26637,1.26269
1300.76075,1.26395
1301.25513,1.26524
1301.74952,1.26654
1302.24390,1.26787
1302.73828,1.26922
1303.23267,1.27059
1303.72705,1.27198
1304.22143,1.27339
1304.71582,1.27483
1305.21020,1.27628
1305.70458,1.27776
1306.19897,1.27926
1306.69335,1.28078
1307.18773,1.28233
1307.68212,1.28391
1308.17650,1.28551
1308.67089,1.28714
1309.16527,1.28880
1309.65965,1.29048
1310.15404,1.29220
1310.64842,1.29395
1311.14280,1.29572
1311.63719,1.29752
1312.13157,1.29936
1312.62595,1.30122
1313.12034,1.30311
1313.61472,1.30502
1314.10910,1.30697
1314.60349,1.30894
1315.09787,1.31095
1315.59225,1.31298
1316.08664,1.31504
1316.58102,1.31712
1317.07541,1.31924
1317.56979,1.32139
1318.06417,1.32357
1318.55856,1.32577
1319.05294,1.32801
1319.54732,1.33027
1320.04171,1.33257
1320.53609,1.33489
1321.03047,1.33724
1321.52486,1.33962
1322.01924,1.34202
1322.51362,1.34445
1323.00801,1.34691
1323.50239,1.34939
1323.99677,1.35190
1324.49116,1.35444
1324.98554,1.35700
1325.47992,1.35958
1325.97431,1.36219
1326.46869,1.36483
1326.96308,1.36748
1327.45746,1.37017
1327.95184,1.37287
1328.44623,1.37560
1328.94061,1.37835
1329.43499,1.38111
1329.92938,1.38390
1330.42376,1.38669
1330.91814,1.38951
1331.41253,1.39233
1331.90691,1.39516
1332.40129,1.39800
1332.89568,1.40084
1333.39006,1.40369
1333.88444,1.40653
1334.37883,1.40938
1334.87321,1.41222
1335.36760,1.41506
1335.86198,1.41789
1336.35636,1.42073
1336.85075,1.42355
1337.34513,1.42637
1337.83951,1.42918
1338.33390,1.43199
1338.82828,1.43479
1339.32266,1.43759
1339.81705,1.44038
1340.31143,1.44316
1340.80581,1.44594
1341.30020,1.44870
1341.79458,1.45146
1342.28896,1.45420
1342.78335,1.45693
1343.27773,1.45965
1343.77211,1.46235
1344.26650,1.46504
1344.76088,1.46771
1345.25527,1.47036
1345.74965,1.47299
1346.24403,1.47561
1346.73842,1.47821
1347.23280,1.48078
1347.72718,1.48334
1348.22157,1.48589
1348.71595,1.48841
1349.21033,1.49093
1349.70472,1.49343
1350.19910,1.49591
1350.69348,1.49839
1351.18787,1.50085
1351.68225,1.50330
1352.17663,1.50574
1352.67102,1.50818
1353.16540,1.51060
1353.65979,1.51301
1354.15417,1.51542
1354.64855,1.51783
1355.14294,1.52023
1355.63732,1.52262
1356.13170,1.52502
1356.62609,1.52742
1357.12047,1.52983
1357.61485,1.53224
1358.10924,1.53466
1358.60362,1.53709
1359.09800,1.53954
1359.59239,1.54201
1360.08677,1.54451
1360.58115,1.54704
1361.07554,1.54960
1361.56992,1.55220
1362.06431,1.55485
1362.55869,1.55755
1363.05307,1.56031
1363.54746,1.56314
1364.04184,1.56603
1364.53622,1.56901
1365.03061,1.57206
1365.52499,1.57521
1366.01937,1.57845
1366.51376,1.58181
1367.00814,1.58527
1367.50252,1.58886
1367.99691,1.59257
1368.49129,1.59641
1368.98567,1.60038
1369.48006,1.60451
1369.97444,1.60878
1370.46882,1.61321
1370.96321,1.61782
1371.45759,1.62260
1371.95198,1.62758
1372.44636,1.63277
1372.94074,1.63818
1373.43513,1.64383
1373.92951,1.64972
1374.42389,1.65588
1374.91828,1.66232
1375.41266,1.66905
1375.90704,1.67609
1376.40143,1.68345
1376.89581,1.69113
1377.39019,1.69915
1377.88458,1.70752
1378.37896,1.71624
1378.87334,1.72531
1379.36773,1.73472
1379.86211,1.74449
1380.35650,1.75460
1380.85088,1.76505
1381.34526,1.77584
1381.83965,1.78697
1382.33403,1.79843
1382.82841,1.81022
1383.32280,1.82234
1383.81718,1.83479
1384.31156,1.84756
1384.80595,1.86065
1385.30033,1.87407
1385.79471,1.88779
1386.28910,1.90183
1386.78348,1.91618
1387.27786,1.93083
1387.77225,1.94577
1388.26663,1.96099
1388.76101,1.97648
1389.25540,1.99222
1389.74978,2.00820
1390.24417,2.02439
1390.73855,2.04078
1391.23293,2.05733
1391.72732,2.07403
1392.22170,2.09085
1392.71608,2.10775
1393.21047,2.12471
1393.70485,2.14171
1394.19923,2.15872
1394.69362,2.17571
1395.18800,2.19267
1395.68238,2.20957
1396.17677,2.22638
1396.67115,2.24310
1397.16553,2.25970
1397.65992,2.27617
1398.15430,2.29248
1398.64869,2.30865
1399.14307,2.32464
1399.63745,2.34044
1400.13184,2.35606
1400.62622,2.37146
1401.12060,2.38664
1401.61499,2.40157
1402.10937,2.41625
1402.60375,2.43064
1403.09814,2.44474
1403.59252,2.45851
1404.08690,2.47194
1404.58129,2.48500
1405.07567,2.49768
1405.57005,2.50998
1406.06444,2.52187
1406.55882,2.53336
1407.05321,2.54446
1407.54759,2.55515
1408.04197,2.56545
1408.53636,2.57538
1409.03074,2.58496
1409.52512,2.59420
1410.01951,2.60314
1410.51389,2.61180
1411.00827,2.62021
1411.50266,2.62839
1411.99704,2.63635
1412.49142,2.64412
1412.98581,2.65170
1413.48019,2.65910
1413.97457,2.66631
1414.46896,2.67334
1414.96334,2.68018
1415.45772,2.68681
1415.95211,2.69323
1416.44649,2.69942
1416.94088,2.70539
1417.43526,2.71112
1417.92964,2.71661
1418.42403,2.72187
1418.91841,2.72689
1419.41279,2.73168
1419.90718,2.73624
1420.40156,2.74061
1420.89594,2.74480
1421.39033,2.74883
1421.88471,2.75274
1422.37909,2.75656
1422.87348,2.76030
1423.36786,2.76399
1423.86224,2.76766
1424.35663,2.77130
1424.85101,2.77494
1425.34540,2.77858
1425.83978,2.78222
1426.33416,2.78585
1426.82855,2.78946
1427.32293,2.79304
1427.81731,2.79657
1428.31170,2.80004
1428.80608,2.80344
1429.30046,2.80672
1429.79485,2.80988
1430.28923,2.81288
1430.78361,2.81571
1431.27800,2.81834
1431.77238,2.82076
1432.26676,2.82298
1432.76115,2.82499
1433.25553,2.82680
1433.74991,2.82840
1434.24430,2.82980
1434.73868,2.83101
1435.23307,2.83206
1435.72745,2.83294
1436.22183,2.83370
1436.71622,2.83433
1437.21060,2.83488
1437.70498,2.83535
1438.19937,2.83577
1438.69375,2.83617
1439.18813,2.83657
1439.68252,2.83699
1440.17690,2.83744
1440.67128,2.83795
1441.16567,2.83852
1441.66005,2.83914
1442.15443,2.83983
1442.64882,2.84059
1443.14320,2.84140
1443.63759,2.84227
1444.13197,2.84318
1444.62635,2.84411
1445.12074,2.84506
1445.61512,2.84598
1446.10950,2.84688
1446.60389,2.84774
1447.09827,2.84855
1447.59265,2.84930
1448.08704,2.84998
1448.58142,2.85059
1449.07580,2.85114
1449.57019,2.85163
1450.06457,2.85206
1450.55895,2.85243
1451.05334,2.85276
1451.54772,2.85303
1452.04210,2.85327
1452.53649,2.85345
1453.03087,2.85360
1453.52526,2.85371
1454.01964,2.85378
1454.51402,2.85382
1455.00841,2.85381
1455.50279,2.85376
1455.99717,2.85364
1456.49156,2.85345
1456.98594,2.85319
1457.48032,2.85283
1457.97471,2.85239
1458.46909,2.85185
1458.96347,2.85122
1459.45786,2.85050
1459.95224,2.84968
1460.44662,2.84876
1460.94101,2.84774
1461.43539,2.84661
1461.92978,2.84535
1462.42416,2.84395
1462.91854,2.84240
1463.41293,2.84068
1463.90731,2.83881
1464.40169,2.83677
1464.89608,2.83458
1465.39046,2.83225
1465.88484,2.82978
1466.37923,2.82719
1466.87361,2.82448
1467.36799,2.82168
1467.86238,2.81878
1468.35676,2.81581
1468.85114,2.81279
1469.34553,2.80973
1469.83991,2.80665
1470.33430,2.80359
1470.82868,2.80054
1471.32306,2.79754
1471.81745,2.79456
1472.31183,2.79162
1472.80621,2.78870
1473.30060,2.78578
1473.79498,2.78285
1474.28936,2.77990
1474.78375,2.77691
1475.27813,2.77388
1475.77251,2.77079
1476.26690,2.76766
1476.76128,2.76447
1477.25566,2.76122
1477.75005,2.75790
1478.24443,2.75451
1478.73881,2.75105
1479.23320,2.74752
1479.72758,2.74391
1480.22197,2.74024
1480.71635,2.73652
1481.21073,2.73276
1481.70512,2.72896
1482.19950,2.72513
1482.69388,2.72129
1483.18827,2.71742
1483.68265,2.71353
1484.17703,2.70962
1484.67142,2.70568
1485.16580,2.70172
1485.66018,2.69774
1486.15457,2.69373
1486.64895,2.68970
1487.14333,2.68566
1487.63772,2.68160
1488.13210,2.67752
1488.62649,2.67342
1489.12087,2.66930
1489.61525,2.66515
1490.10964,2.66098
1490.60402,2.65677
1491.09840,2.65253
1491.59279,2.64826
1492.08717,2.64396
1492.58155,2.63962
1493.07594,2.63524
1493.57032,2.63083
1494.06470,2.62638
1494.55909,2.62190
1495.05347,2.61738
1495.54785,2.61283
1496.04224,2.60824
1496.53662,2.60363
1497.03100,2.59898
1497.52539,2.59432
1498.01977,2.58964
1498.51416,2.58496
1499.00854,2.58026
1499.50292,2.57557
1499.99731,2.57089
1500.49169,2.56621
1500.98607,2.56156
1501.48046,2.55693
1501.97484,2.55232
1502.46922,2.54774
1502.96361,2.54319
1503.45799,2.53866
1503.95237,2.53417
1504.44676,2.52969
1504.94114,2.52524
1505.43552,2.52080
1505.92991,2.51638
1506.42429,2.51197
1506.91868,2.50757
1507.41306,2.50317
1507.90744,2.49877
1508.40183,2.49437
1508.89621,2.48997
1509.39059,2.48557
1509.88498,2.48117
1510.37936,2.47677
1510.87374,2.47237
1511.36813,2.46797
1511.86251,2.46359
1512.35689,2.45921
1512.85128,2.45485
1513.34566,2.45050
1513.84004,2.44616
1514.33443,2.44184
1514.82881,2.43753
1515.32320,2.43323
1515.81758,2.42894
1516.31196,2.42465
1516.80635,2.42036
1517.30073,2.41607
1517.79511,2.41178
1518.28950,2.40749
1518.78388,2.40320
1519.27826,2.39891
1519.77265,2.39462
1520.26703,2.39032
1520.76141,2.38604
1521.25580,2.38176
1521.75018,2.37749
1522.24456,2.37324
1522.73895,2.36902
1523.23333,2.36483
1523.72771,2.36067
1524.22210,2.35654
1524.71648,2.35245
1525.21087,2.34838
1525.70525,2.34434
1526.19963,2.34032
1526.69402,2.33631
1527.18840,2.33231
1527.68278,2.32832
1528.17717,2.32433
1528.67155,2.32034
1529.16593,2.31634
1529.66032,2.31233
1530.15470,2.30830
1530.64908,2.30426
1531.14347,2.30021
1531.63785,2.29614
1532.13223,2.29208
1532.62662,2.28802
1533.12100,2.28396
1533.61539,2.27993
1534.10977,2.27592
1534.60415,2.27194
1535.09854,2.26799
1535.59292,2.26409
1536.08730,2.26022
1536.58169,2.25639
1537.07607,2.25260
1537.57045,2.24885
1538.06484,2.24513
1538.55922,2.24144
1539.05360,2.23777
1539.54799,2.23412
1540.04237,2.23049
1540.53675,2.22686
1541.03114,2.22325
1541.52552,2.21963
1542.01990,2.21603
1542.51429,2.21242
1543.00867,2.20883
1543.50306,2.20523
1543.99744,2.20165
1544.49182,2.19808
1544.98621,2.19453
1545.48059,2.19100
1545.97497,2.18750
1546.46936,2.18402
1546.96374,2.18057
1547.45812,2.17715
1547.95251,2.17376
1548.44689,2.17040
1548.94127,2.16708
1549.43566,2.16377
1549.93004,2.16050
1550.42442,2.15725
1550.91881,2.15402
1551.41319,2.15081
1551.90758,2.14763
1552.40196,2.14446
1552.89634,2.14130
1553.39073,2.13816
1553.88511,2.13504
1554.37949,2.13192
1554.87388,2.12882
1555.36826,2.12573
1555.86264,2.12265
1556.35703,2.11958
1556.85141,2.11653
1557.34579,2.11349
1557.84018,2.11047
1558.33456,2.10747
1558.82894,2.10449
1559.32333,2.10152
1559.81771,2.09858
1560.31209,2.09566
1560.80648,2.09277
1561.30086,2.08991
1561.79525,2.08707
1562.28963,2.08426
1562.78401,2.08148
1563.27840,2.07872
1563.77278,2.07599
1564.26716,2.07329
1564.76155,2.07061
1565.25593,2.06794
1565.75031,2.06530
1566.24470,2.06267
1566.73908,2.06006
1567.23346,2.05747
1567.72785,2.05489
1568.22223,2.05232
1568.71661,2.04977
1569.21100,2.04724
1569.70538,2.04472
1570.19977,2.04222
1570.69415,2.03973
1571.18853,2.03726
1571.68292,2.03481
1572.17730,2.03238
1572.67168,2.02997
1573.16607,2.02758
1573.66045,2.02520
1574.15483,2.02285
1574.64922,2.02050
1575.14360,2.01818
1575.63798,2.01587
1576.13237,2.01357
1576.62675,2.01128
1577.12113,2.00900
1577.61552,2.00673
1578.10990,2.00447
1578.60429,2.00223
1579.09867,2.00001
1579.59305,1.99780
1580.08744,1.99561
1580.58182,1.99344
1581.07620,1.99129
1581.57059,1.98916
1582.06497,1.98706
1582.55935,1.98497
1583.05374,1.98291
1583.54812,1.98088
1584.04250,1.97886
1584.53689,1.97686
1585.03127,1.97489
1585.52565,1.97293
1586.02004,1.97098
1586.51442,1.96905
1587.00880,1.96713
1587.50319,1.96522
1587.99757,1.96332
1588.49196,1.96143
1588.98634,1.95955
1589.48072,1.95768
1589.97511,1.95583
1590.46949,1.95399
1590.96387,1.95217
1591.45826,1.95037
1591.95264,1.94859
1592.44702,1.94683
1592.94141,1.94509
1593.43579,1.94337
1593.93017,1.94168
1594.42456,1.94001
1594.91894,1.93836
1595.41332,1.93673
1595.90771,1.93511
1596.40209,1.93351
1596.89648,1.93192
1597.39086,1.93035
1597.88524,1.92878
1598.37963,1.92721
1598.87401,1.92565
1599.36839,1.92409
1599.86278,1.92254
1600.35716,1.92098
1600.85154,1.91943
1601.34593,1.91788
1601.84031,1.91634
1602.33469,1.91480
1602.82908,1.91328
1603.32346,1.91176
1603.81784,1.91025
1604.31223,1.90876
1604.80661,1.90728
1605.30099,1.90582
1605.79538,1.90437
1606.28976,1.90295
1606.78415,1.90154
1607.27853,1.90015
1607.77291,1.89878
1608.26730,1.89743
1608.76168,1.89609
1609.25606,1.89478
1609.75045,1.89348
1610.24483,1.89219
1610.73921,1.89093
1611.23360,1.88967
1611.72798,1.88843
1612.22236,1.88720
1612.71675,1.88599
1613.21113,1.88479
1613.70551,1.88360
1614.19990,1.88242
1614.69428,1.88125
1615.18867,1.88010
1615.68305,1.87895
1616.17743,1.87782
1616.67182,1.87669
1617.16620,1.87557
1617.66058,1.87446
1618.15497,1.87336
1618.64935,1.87227
1619.14373,1.87118
1619.63812,1.87010
1620.13250,1.86903
1620.62688,1.86796
1621.12127,1.86689
1621.61565,1.86583
1622.11003,1.86476
1622.60442,1.86371
1623.09880,1.86265
1623.59318,1.86160
1624.08757,1.86055
1624.58195,1.85951
1625.07634,1.85848
1625.57072,1.85746
1626.06510,1.85644
1626.55949,1.85544
1627.05387,1.85445
1627.54825,1.85348
1628.04264,1.85253
1628.53702,1.85159
1629.03140,1.85066
1629.52579,1.84976
1630.02017,1.84887
1630.51455,1.84801
1631.00894,1.84715
1631.50332,1.84632
1631.99770,1.84550
1632.49209,1.84469
1632.98647,1.84389
1633.48086,1.84310
1633.97524,1.84231
1634.46962,1.84154
1634.96401,1.84076
1635.45839,1.83999
1635.95277,1.83922
1636.44716,1.83846
1636.94154,1.83769
1637.43592,1.83692
1637.93031,1.83615
1638.42469,1.83539
1638.91907,1.83462
1639.41346,1.83386
1639.90784,1.83310
1640.40222,1.83235
1640.89661,1.83161
1641.39099,1.83087
1641.88538,1.83015
1642.37976,1.82944
1642.87414,1.82874
1643.36853,1.82805
1643.86291,1.82737
1644.35729,1.82671
1644.85168,1.82606
1645.34606,1.82542
1645.84044,1.82479
1646.33483,1.82418
1646.82921,1.82357
1647.32359,1.82298
1647.81798,1.82240
1648.31236,1.82182
1648.80674,1.82126
1649.30113,1.82071
1649.79551,1.82017
1650.28989,1.81964
1650.78428,1.81912
1651.27866,1.81862
1651.77305,1.81813
1652.26743,1.81765
1652.76181,1.81719
1653.25620,1.81674
1653.75058,1.81630
1654.24496,1.81588
1654.73935,1.81547
1655.23373,1.81507
1655.72811,1.81468
1656.22250,1.81430
1656.71688,1.81394
1657.21126,1.81358
1657.70565,1.81323
1658.20003,1.81288
1658.69441,1.81254
1659.18880,1.81222
1659.68318,1.81189
1660.17757,1.81158
1660.67195,1.81127
1661.16633,1.81097
1661.66072,1.81067
1662.15510,1.81038
1662.64948,1.81010
1663.14387,1.80982
1663.63825,1.80956
1664.13263,1.80930
1664.62702,1.80904
1665.12140,1.80880
1665.61578,1.80857
1666.11017,1.80835
1666.60455,1.80815
1667.09893,1.80796
1667.59332,1.80778
1668.08770,1.80762
1668.58208,1.80748
1669.07647,1.80735
1669.57085,1.80724
1670.06524,1.80715
1670.55962,1.80708
1671.05400,1.80703
1671.54839,1.80699
1672.04277,1.80697
1672.53715,1.80697
1673.03154,1.80697
1673.52592,1.80700
1674.02030,1.80703
1674.51469,1.80708
1675.00907,1.80714
1675.50345,1.80721
1675.99784,1.80729
1676.49222,1.80738
1676.98660,1.80749
1677.48099,1.80760
1677.97537,1.80773
1678.46976,1.80786
1678.96414,1.80801
1679.45852,1.80817
1679.95291,1.80834
1680.44729,1.80852
1680.94167,1.80871
1681.43606,1.80891
1681.93044,1.80912
1682.42482,1.80934
1682.91921,1.80957
1683.41359,1.80981
1683.90797,1.81006
1684.40236,1.81032
1684.89674,1.81058
1685.39112,1.81086
1685.88551,1.81115
1686.37989,1.81144
1686.87428,1.81174
1687.36866,1.81205
1687.86304,1.81236
1688.35743,1.81267
1688.85181,1.81299
1689.34619,1.81331
1689.84058,1.81363
1690.33496,1.81396
1690.82934,1.81428
1691.32373,1.81459
1691.81811,1.81491
1692.31249,1.81523
1692.80688,1.81555
1693.30126,1.81587
1693.79564,1.81619
1694.29003,1.81653
1694.78441,1.81687
1695.27879,1.81723
1695.77318,1.81761
1696.26756,1.81800
1696.76195,1.81842
1697.25633,1.81885
1697.75071,1.81931
1698.24510,1.81978
1698.73948,1.82027
1699.23386,1.82078
1699.72825,1.82131
1700.22263,1.82184
1700.71701,1.82239
1701.21140,1.82295
1701.70578,1.82352
1702.20016,1.82410
1702.69455,1.82468
1703.18893,1.82526
1703.68331,1.82586
1704.17770,1.82646
1704.67208,1.82707
1705.16647,1.82770
1705.66085,1.82834
1706.15523,1.82900
1706.64962,1.82968
1707.14400,1.83039
1707.63838,1.83112
1708.13277,1.83187
1708.62715,1.83265
1709.12153,1.83346
1709.61592,1.83429
1710.11030,1.83514
1710.60468,1.83601
1711.09907,1.83690
1711.59345,1.83781
1712.08783,1.83873
1712.58222,1.83967
1713.07660,1.84061
1713.57098,1.84155
1714.06537,1.84251
1714.55975,1.84347
1715.05414,1.84443
1715.54852,1.84541
1716.04290,1.84639
1716.53729,1.84739
1717.03167,1.84839
1717.52605,1.84942
1718.02044,1.85046
1718.51482,1.85153
1719.00920,1.85261
1719.50359,1.85372
1719.99797,1.85485
1720.49235,1.85601
1720.98674,1.85719
1721.48112,1.85840
1721.97550,1.85963
1722.46989,1.86087
1722.96427,1.86213
1723.45866,1.86341
1723.95304,1.86469
1724.44742,1.86599
1724.94181,1.86729
1725.43619,1.86860
1725.93057,1.86991
1726.42496,1.87122
1726.91934,1.87254
1727.41372,1.87386
1727.90811,1.87518
1728.40249,1.87652
1728.89687,1.87786
1729.39126,1.87921
1729.88564,1.88057
1730.38002,1.88195
1730.87441,1.88334
1731.36879,1.88475
1731.86317,1.88618
1732.35756,1.88762
1732.85194,1.88909
1733.34633,1.89058
1733.84071,1.89208
1734.33509,1.89361
1734.82948,1.89515
1735.32386,1.89671
1735.81824,1.89829
1736.31263,1.89989
1736.80701,1.90150
1737.30139,1.90313
1737.79578,1.90477
1738.29016,1.90643
1738.78454,1.90811
1739.27893,1.90980
1739.77331,1.91151
1740.26769,1.91323
1740.76208,1.91497
1741.25646,1.91673
1741.75085,1.91850
1742.24523,1.92029
1742.73961,1.92210
1743.23400,1.92392
1743.72838,1.92577
1744.22276,1.92763
1744.71715,1.92951
1745.21153,1.93141
1745.70591,1.93334
1746.20030,1.93528
1746.69468,1.93725
1747.18906,1.93924
1747.68345,1.94125
1748.17783,1.94328
1748.67221,1.94534
1749.16660,1.94741
1749.66098,1.94951
1750.15537,1.95162
1750.64975,1.95375
1751.14413,1.95590
1751.63852,1.95806
1752.13290,1.96023
1752.62728,1.96241
1753.12167,1.96459
1753.61605,1.96679
1754.11043,1.96899
1754.60482,1.97119
1755.09920,1.97340
1755.59358,1.97561
1756.08797,1.97782
1756.58235,1.98004
1757.07673,1.98225
1757.57112,1.98446
1758.06550,1.98666
1758.55988,1.98887
1759.05427,1.99107
1759.54865,1.99326
1760.04304,1.99544
1760.53742,1.99762
1761.03180,1.99978
1761.52619,2.00194
1762.02057,2.00408
1762.51495,2.00620
1763.00934,2.00831
1763.50372,2.01041
1763.99810,2.01248
1764.49249,2.01454
1764.98687,2.01658
1765.48125,2.01861
1765.97564,2.02061
1766.47002,2.02259
1766.96440,2.02455
1767.45879,2.02649
1767.95317,2.02841
1768.44756,2.03030
1768.94194,2.03217
1769.43632,2.03401
1769.93071,2.03583
1770.42509,2.03762
1770.91947,2.03937
1771.41386,2.04110
1771.90824,2.04281
1772.40262,2.04448
1772.89701,2.04612
1773.39139,2.04774
1773.88577,2.04932
1774.38016,2.05088
1774.87454,2.05241
1775.36892,2.05391
1775.86331,2.05539
1776.35769,2.05683
1776.85207,2.05825
1777.34646,2.05964
1777.84084,2.06100
1778.33523,2.06233
1778.82961,2.06362
1779.32399,2.06489
1779.81838,2.06613
1780.31276,2.06733
1780.80714,2.06849
1781.30153,2.06962
1781.79591,2.07071
1782.29029,2.07176
1782.78468,2.07277
1783.27906,2.07375
1783.77344,2.07468
1784.26783,2.07557
1784.76221,2.07642
1785.25659,2.07723
1785.75098,2.07800
1786.24536,2.07872
1786.73975,2.07940
1787.23413,2.08004
1787.72851,2.08064
1788.22290,2.08120
1788.71728,2.08173
1789.21166,2.08222
1789.70605,2.08268
1790.20043,2.08310
1790.69481,2.08351
1791.18920,2.08388
1791.68358,2.08423
1792.17796,2.08456
1792.67235,2.08487
1793.16673,2.08516
1793.66111,2.08544
1794.15550,2.08570
1794.64988,2.08595
1795.14427,2.08619
1795.63865,2.08642
1796.13303,2.08663
1796.62742,2.08684
1797.12180,2.08703
1797.61618,2.08722
1798.11057,2.08739
1798.60495,2.08756
1799.09933,2.08771
1799.59372,2.08786
1800.08810,2.08800
1800.58248,2.08813
1801.07687,2.08825
1801.57125,2.08836
1802.06563,2.08846
1802.56002,2.08854
1803.05440,2.08862
1803.54878,2.08868
1804.04317,2.08873
1804.53755,2.08876
1805.03194,2.08879
1805.52632,2.08880
1806.02070,2.08880
1806.51509,2.08879
1807.00947,2.08877
1807.50385,2.08874
1807.99824,2.08871
1808.49262,2.08867
1808.98700,2.08863
1809.48139,2.08860
1809.97577,2.08857
1810.47015,2.08855
1810.96454,2.08855
1811.45892,2.08856
1811.95330,2.08859
1812.44769,2.08864
1812.94207,2.08871
1813.43646,2.08881
1813.93084,2.08894
1814.42522,2.08909
1814.91961,2.08927
1815.41399,2.08948
1815.90837,2.08971
1816.40276,2.08997
1816.89714,2.09026
1817.39152,2.09056
1817.88591,2.09088
1818.38029,2.09122
1818.87467,2.09157
1819.36906,2.09192
1819.86344,2.09229
1820.35782,2.09266
1820.85221,2.09305
1821.34659,2.09344
1821.84097,2.09384
1822.33536,2.09425
1822.82974,2.09467
1823.32413,2.09511
1823.81851,2.09556
1824.31289,2.09604
1824.80728,2.09654
1825.30166,2.09706
1825.79604,2.09762
1826.29043,2.09822
1826.78481,2.09885
1827.27919,2.09953
1827.77358,2.10025
1828.26796,2.10101
1828.76234,2.10182
1829.25673,2.10267
1829.75111,2.10358
1830.24549,2.10454
1830.73988,2.10555
1831.23426,2.10663
1831.72865,2.10776
1832.22303,2.10895
1832.71741,2.11021
1833.21180,2.11153
1833.70618,2.11291
1834.20056,2.11434
1834.69495,2.11583
1835.18933,2.11738
1835.68371,2.11897
1836.17810,2.12062
1836.67248,2.12232
1837.16686,2.12407
1837.66125,2.12586
1838.15563,2.12771
1838.65001,2.12962
1839.14440,2.13158
1839.63878,2.13360
1840.13316,2.13568
1840.62755,2.13784
1841.12193,2.14008
1841.61632,2.14240
1842.11070,2.14483
1842.60508,2.14736
1843.09947,2.15001
1843.59385,2.15278
1844.08823,2.15567
1844.58262,2.15868
1845.07700,2.16182
1845.57138,2.16508
1846.06577,2.16846
1846.56015,2.17196
1847.05453,2.17559
1847.54892,2.17934
1848.04330,2.18322
1848.53768,2.18722
1849.03207,2.19136
1849.52645,2.19564
1850.02084,2.20005
1850.51522,2.20462
1851.00960,2.20935
1851.50399,2.21424
1851.99837,2.21932
1852.49275,2.22459
1852.98714,2.23007
1853.48152,2.23576
1853.97590,2.24168
1854.47029,2.24783
1854.96467,2.25423
1855.45905,2.26087
1855.95344,2.26775
1856.44782,2.27489
1856.94220,2.28227
1857.43659,2.28989
1857.93097,2.29776
1858.42536,2.30588
1858.91974,2.31424
1859.41412,2.32284
1859.90851,2.33168
1860.40289,2.34076
1860.89727,2.35009
1861.39166,2.35967
1861.88604,2.36949
1862.38042,2.37957
1862.87481,2.38991
1863.36919,2.40052
1863.86357,2.41140
1864.35796,2.42256
1864.85234,2.43400
1865.34672,2.44574
1865.84111,2.45776
1866.33549,2.47009
1866.82987,2.48271
1867.32426,2.49564
1867.81864,2.50887
1868.31303,2.52239
1868.80741,2.53622
1869.30179,2.55034
1869.79618,2.56474
1870.29056,2.57943
1870.78494,2.59437
1871.27933,2.60957
1871.77371,2.62500
1872.26809,2.64065
1872.76248,2.65648
1873.25686,2.67246
1873.75124,2.68858
1874.24563,2.70480
1874.74001,2.72108
1875.23439,2.73739
1875.72878,2.75370
1876.22316,2.76996
1876.71755,2.78614
1877.21193,2.80223
1877.70631,2.81819
1878.20070,2.83399
1878.69508,2.84962
1879.18946,2.86507
1879.68385,2.88032
1880.17823,2.89537
1880.67261,2.91020
1881.16700,2.92479
1881.66138,2.93915
1882.15576,2.95324
1882.65015,2.96706
1883.14453,2.98058
1883.63891,2.99377
1884.13330,3.00662
1884.62768,3.01909
1885.12206,3.03115
1885.61645,3.04278
1886.11083,3.05395
1886.60522,3.06463
1887.09960,3.07480
1887.59398,3.08444
1888.08837,3.09356
1888.58275,3.10213
1889.07713,3.11018
1889.57152,3.11772
1890.06590,3.12477
1890.56028,3.13136
1891.05467,3.13752
1891.54905,3.14329
1892.04343,3.14869
1892.53782,3.15377
1893.03220,3.15855
1893.52658,3.16304
1894.02097,3.16728
1894.51535,3.17128
1895.00974,3.17505
1895.50412,3.17861
1895.99850,3.18195
1896.49289,3.18509
1896.98727,3.18802
1897.48165,3.19074
1897.97604,3.19324
1898.47042,3.19552
1898.96480,3.19759
1899.45919,3.19944
1899.95357,3.20108
1900.44795,3.20254
1900.94234,3.20382
1901.43672,3.20497
1901.93110,3.20601
1902.42549,3.20696
1902.91987,3.20787
1903.41426,3.20876
1903.90864,3.20964
1904.40302,3.21055
1904.89741,3.21150
1905.39179,3.21251
1905.88617,3.21357
1906.38056,3.21469
1906.87494,3.21586
1907.36932,3.21707
1907.86371,3.21828
1908.35809,3.21949
1908.85247,3.22065
1909.34686,3.22173
1909.84124,3.22270
1910.33562,3.22353
1910.83001,3.22421
1911.32439,3.22471
1911.81877,3.22504
1912.31316,3.22520
1912.80754,3.22520
1913.30193,3.22507
1913.79631,3.22483
1914.29069,3.22451
1914.78508,3.22415
1915.27946,3.22378
1915.77384,3.22345
1916.26823,3.22318
1916.76261,3.22301
1917.25699,3.22295
1917.75138,3.22303
1918.24576,3.22324
1918.74014,3.22359
1919.23453,3.22407
1919.72891,3.22467
1920.22329,3.22535
1920.71768,3.22609
1921.21206,3.22687
1921.70645,3.22765
1922.20083,3.22840
1922.69521,3.22911
1923.18960,3.22975
1923.68398,3.23031
1924.17836,3.23078
1924.67275,3.23116
1925.16713,3.23144
1925.66151,3.23165
1926.15590,3.23179
1926.65028,3.23188
1927.14466,3.23193
1927.63905,3.23196
1928.13343,3.23198
1928.62781,3.23201
1929.12220,3.23204
1929.61658,3.23210
1930.11096,3.23217
1930.60535,3.23225
1931.09973,3.23235
1931.59412,3.23245
1932.08850,3.23254
1932.58288,3.23261
1933.07727,3.23265
1933.57165,3.23264
1934.06603,3.23257
1934.56042,3.23243
1935.05480,3.23220
1935.54918,3.23190
1936.04357,3.23152
1936.53795,3.23105
1937.03233,3.23050
1937.52672,3.22988
1938.02110,3.22920
1938.51548,3.22847
1939.00987,3.22770
1939.50425,3.22691
1939.99864,3.22609
1940.49302,3.22528
1940.98740,3.22448
1941.48179,3.22370
1941.97617,3.22295
1942.47055,3.22224
1942.96494,3.22156
1943.45932,3.22093
1943.95370,3.22034
1944.44809,3.21977
1944.94247,3.21923
1945.43685,3.21870
1945.93124,3.21817
1946.42562,3.21762
1946.92000,3.21706
1947.41439,3.21646
1947.90877,3.21583
1948.40315,3.21516
1948.89754,3.21445
1949.39192,3.21370
1949.88631,3.21292
1950.38069,3.21213
1950.87507,3.21133
1951.36946,3.21055
1951.86384,3.20979
1952.35822,3.20907
1952.85261,3.20840
1953.34699,3.20778
1953.84137,3.20723
1954.33576,3.20675
1954.83014,3.20634
1955.32452,3.20601
1955.81891,3.20576
1956.31329,3.20558
1956.80767,3.20548
1957.30206,3.20545
1957.79644,3.20549
1958.29083,3.20558
1958.78521,3.20572
1959.27959,3.20592
1959.77398,3.20616
1960.26836,3.20644
1960.76274,3.20676
1961.25713,3.20711
1961.75151,3.20749
1962.24589,3.20789
1962.74028,3.20828
1963.23466,3.20865
1963.72904,3.20898
1964.22343,3.20925
1964.71781,3.20944
1965.21219,3.20953
1965.70658,3.20951
1966.20096,3.20937
1966.69535,3.20912
1967.18973,3.20876
1967.68411,3.20830
1968.17850,3.20775
1968.67288,3.20712
1969.16726,3.20643
1969.66165,3.20569
1970.15603,3.20492
1970.65041,3.20413
1971.14480,3.20335
1971.63918,3.20258
1972.13356,3.20182
1972.62795,3.20108
1973.12233,3.20034
1973.61671,3.19959
1974.11110,3.19881
1974.60548,3.19798
1975.09986,3.19706
1975.59425,3.19604
1976.08863,3.19490
1976.58302,3.19364
1977.07740,3.19225
1977.57178,3.19077
1978.06617,3.18921
1978.56055,3.18762
1979.05493,3.18602
1979.54932,3.18447
1980.04370,3.18301
1980.53808,3.18168
1981.03247,3.18053
1981.52685,3.17959
1982.02123,3.17889
1982.51562,3.17845
1983.01000,3.17827
1983.50438,3.17834
1983.99877,3.17864
1984.49315,3.17914
1984.98754,3.17979
1985.48192,3.18052
1985.97630,3.18128
1986.47069,3.18200
1986.96507,3.18263
1987.45945,3.18311
1987.95384,3.18342
1988.44822,3.18354
1988.94260,3.18345
1989.43699,3.18316
1989.93137,3.18269
1990.42575,3.18205
1990.92014,3.18127
1991.41452,3.18038
1991.90890,3.17940
1992.40329,3.17838
1992.89767,3.17732
1993.39205,3.17625
1993.88644,3.17518
1994.38082,3.17413
1994.87521,3.17309
1995.36959,3.17206
1995.86397,3.17102
1996.35836,3.16994
1996.85274,3.16882
1997.34712,3.16764
1997.84151,3.16637
1998.33589,3.16501
1998.83027,3.16357
1999.32466,3.16205
1999.81904,3.16048
2000.31342,3.15888
2000.80781,3.15728
2001.30219,3.15571
2001.79657,3.15420
2002.29096,3.15278
2002.78534,3.15148
2003.27973,3.15032
2003.77411,3.14930
2004.26849,3.14844
2004.76288,3.14773
2005.25726,3.14717
2005.75164,3.14672
2006.24603,3.14637
2006.74041,3.14609
2007.23479,3.14582
2007.72918,3.14553
2008.22356,3.14519
2008.71794,3.14474
2009.21233,3.14418
2009.70671,3.14346
2010.20109,3.14257
2010.69548,3.14152
2011.18986,3.14030
2011.68425,3.13893
2012.17863,3.13744
2012.67301,3.13584
2013.16740,3.13417
2013.66178,3.13246
2014.15616,3.13075
2014.65055,3.12906
2015.14493,3.12741
2015.63931,3.12582
2016.13370,3.12430
2016.62808,3.12286
2017.12246,3.12148
2017.61685,3.12017
2018.11123,3.11889
2018.60561,3.11763
2019.10000,3.11636
2019.59438,3.11508
2020.08876,3.11377
2020.58315,3.11240
2021.07753,3.11098
2021.57192,3.10952
2022.06630,3.10801
2022.56068,3.10647
2023.05507,3.10493
2023.54945,3.10340
2024.04383,3.10191
2024.53822,3.10049
2025.03260,3.09916
2025.52698,3.09794
2026.02137,3.09684
2026.51575,3.09585
2027.01013,3.09499
2027.50452,3.09422
2027.99890,3.09353
2028.49328,3.09289
2028.98767,3.09226
2029.48205,3.09161
2029.97644,3.09090
2030.47082,3.09009
2030.96520,3.08916
2031.45959,3.08807
2031.95397,3.08681
2032.44835,3.08537
2032.94274,3.08375
2033.43712,3.08195
2033.93150,3.08000
2034.42589,3.07793
2034.92027,3.07576
2035.41465,3.07354
2035.90904,3.07132
2036.40342,3.06913
2036.89780,3.06702
2037.39219,3.06503
2037.88657,3.06319
2038.38095,3.06151
2038.87534,3.06002
2039.36972,3.05871
2039.86411,3.05757
2040.35849,3.05660
2040.85287,3.05576
2041.34726,3.05503
2041.84164,3.05437
2042.33602,3.05374
2042.83041,3.05310
2043.32479,3.05243
2043.81917,3.05168
2044.31356,3.05083
2044.80794,3.04985
2045.30232,3.04875
2045.79671,3.04752
2046.29109,3.04616
2046.78547,3.04469
2047.27986,3.04313
2047.77424,3.04149
2048.26863,3.03981
2048.76301,3.03811
2049.25739,3.03641
2049.75178,3.03472
2050.24616,3.03307
2050.74054,3.03146
2051.23493,3.02989
2051.72931,3.02837
2052.22369,3.02689
2052.71808,3.02545
2053.21246,3.02403
2053.70684,3.02263
2054.20123,3.02123
2054.69561,3.01982
2055.18999,3.01839
2055.68438,3.01694
2056.17876,3.01546
2056.67314,3.01395
2057.16753,3.01240
2057.66191,3.01083
2058.15630,3.00923
2058.65068,3.00761
2059.14506,3.00596
2059.63945,3.00429
2060.13383,3.00259
2060.62821,3.00085
2061.12260,2.99907
2061.61698,2.99723
2062.11136,2.99533
2062.60575,2.99335
2063.10013,2.99130
2063.59451,2.98916
2064.08890,2.98694
2064.58328,2.98462
2065.07766,2.98223
2065.57205,2.97977
2066.06643,2.97725
2066.56082,2.97468
2067.05520,2.97210
2067.54958,2.96951
2068.04397,2.96695
2068.53835,2.96444
2069.03273,2.96199
2069.52712,2.95964
2070.02150,2.95739
2070.51588,2.95526
2071.01027,2.95325
2071.50465,2.95137
2071.99903,2.94961
2072.49342,2.94797
2072.98780,2.94643
2073.48218,2.94498
2073.97657,2.94362
2074.47095,2.94230
2074.96534,2.94103
2075.45972,2.93977
2075.95410,2.93852
2076.44849,2.93724
2076.94287,2.93594
2077.43725,2.93458
2077.93164,2.93315
2078.42602,2.93165
2078.92040,2.93007
2079.41479,2.92841
2079.90917,2.92666
2080.40355,2.92482
2080.89794,2.92292
2081.39232,2.92095
2081.88670,2.91892
2082.38109,2.91687
2082.87547,2.91480
2083.36985,2.91272
2083.86424,2.91068
2084.35862,2.90867
2084.85301,2.90672
2085.34739,2.90484
2085.84177,2.90306
2086.33616,2.90136
2086.83054,2.89977
2087.32492,2.89827
2087.81931,2.89686
2088.31369,2.89551
2088.80807,2.89420
2089.30246,2.89291
2089.79684,2.89160
2090.29122,2.89026
2090.78561,2.88884
2091.27999,2.88732
2091.77437,2.88569
2092.26876,2.88392
2092.76314,2.88201
2093.25753,2.87995
2093.75191,2.87774
2094.24629,2.87540
2094.74068,2.87293
2095.23506,2.87036
2095.72944,2.86771
2096.22383,2.86501
2096.71821,2.86228
2097.21259,2.85955
2097.70698,2.85684
2098.20136,2.85418
2098.69574,2.85157
2099.19013,2.84904
2099.68451,2.84658
2100.17889,2.84420
2100.67328,2.84190
2101.16766,2.83967
2101.66204,2.83751
2102.15643,2.83542
2102.65081,2.83339
2103.14520,2.83141
2103.63958,2.82949
2104.13396,2.82762
2104.62835,2.82579
2105.12273,2.82401
2105.61711,2.82226
2106.11150,2.82055
2106.60588,2.81887
2107.10026,2.81723
2107.59465,2.81561
2108.08903,2.81402
2108.58341,2.81245
2109.07780,2.81090
2109.57218,2.80935
2110.06656,2.80781
2110.56095,2.80627
2111.05533,2.80472
2111.54972,2.80315
2112.04410,2.80156
2112.53848,2.79995
2113.03287,2.79832
2113.52725,2.79666
2114.02163,2.79497
2114.51602,2.79327
2115.01040,2.79154
2115.50478,2.78979
2115.99917,2.78803
2116.49355,2.78625
2116.98793,2.78446
2117.48232,2.78266
2117.97670,2.78084
2118.47108,2.77902
2118.96547,2.77719
2119.45985,2.77535
2119.95423,2.77351
2120.44862,2.77167
2120.94300,2.76983
2121.43739,2.76800
2121.93177,2.76617
2122.42615,2.76435
2122.92054,2.76254
2123.41492,2.76076
2123.90930,2.75900
2124.40369,2.75728
2124.89807,2.75559
2125.39245,2.75395
2125.88684,2.75235
2126.38122,2.75080
2126.87560,2.74929
2127.36999,2.74783
2127.86437,2.74641
2128.35875,2.74502
2128.85314,2.74365
2129.34752,2.74229
2129.84191,2.74094
2130.33629,2.73959
2130.83067,2.73821
2131.32506,2.73681
2131.81944,2.73537
2132.31382,2.73389
2132.80821,2.73236
2133.30259,2.73078
2133.79697,2.72916
2134.29136,2.72750
2134.78574,2.72580
2135.28012,2.72407
2135.77451,2.72233
2136.26889,2.72059
2136.76327,2.71885
2137.25766,2.71711
2137.75204,2.71540
2138.24643,2.71372
2138.74081,2.71206
2139.23519,2.71045
2139.72958,2.70887
2140.22396,2.70732
2140.71834,2.70582
2141.21273,2.70435
2141.70711,2.70293
2142.20149,2.70153
2142.69588,2.70018
2143.19026,2.69886
2143.68464,2.69758
2144.17903,2.69633
2144.67341,2.69513
2145.16779,2.69396
2145.66218,2.69284
2146.15656,2.69175
2146.65094,2.69071
2147.14533,2.68970
2147.63971,2.68873
2148.13410,2.68779
2148.62848,2.68687
2149.12286,2.68597
2149.61725,2.68508
2150.11163,2.68420
2150.60601,2.68333
2151.10040,2.68246
2151.59478,2.68159
2152.08916,2.68071
2152.58355,2.67983
2153.07793,2.67895
2153.57231,2.67808
2154.06670,2.67720
2154.56108,2.67634
2155.05546,2.67549
2155.54985,2.67465
2156.04423,2.67383
2156.53862,2.67302
2157.03300,2.67224
2157.52738,2.67147
2158.02177,2.67071
2158.51615,2.66996
2159.01053,2.66922
2159.50492,2.66847
2159.99930,2.66770
2160.49368,2.66692
2160.98807,2.66611
2161.48245,2.66528
2161.97683,2.66441
2162.47122,2.66351
2162.96560,2.66257
2163.45998,2.66161
2163.95437,2.66061
2164.44875,2.65959
2164.94313,2.65854
2165.43752,2.65749
2165.93190,2.65642
2166.42629,2.65536
2166.92067,2.65430
2167.41505,2.65325
2167.90944,2.65221
2168.40382,2.65120
2168.89820,2.65021
2169.39259,2.64924
2169.88697,2.64829
2170.38135,2.64737
2170.87574,2.64648
2171.37012,2.64560
2171.86450,2.64475
2172.35889,2.64391
2172.85327,2.64310
2173.34765,2.64230
2173.84204,2.64153
2174.33642,2.64077
2174.83081,2.64004
2175.32519,2.63934
2175.81957,2.63867
2176.31396,2.63802
2176.80834,2.63741
2177.30272,2.63682
2177.79711,2.63627
2178.29149,2.63575
2178.78587,2.63525
2179.28026,2.63477
2179.77464,2.63432
2180.26902,2.63387
2180.76341,2.63343
2181.25779,2.63299
2181.75217,2.63254
2182.24656,2.63207
2182.74094,2.63157
2183.23533,2.63104
2183.72971,2.63048
2184.22409,2.62987
2184.71848,2.62923
2185.21286,2.62855
2185.70724,2.62783
2186.20163,2.62709
2186.69601,2.62632
2187.19039,2.62553
2187.68478,2.62474
2188.17916,2.62395
2188.67354,2.62317
2189.16793,2.62241
2189.66231,2.62167
2190.15669,2.62097
2190.65108,2.62031
2191.14546,2.61969
2191.63984,2.61911
2192.13423,2.61858
2192.62861,2.61808
2193.12300,2.61762
2193.61738,2.61720
2194.11176,2.61679
2194.60615,2.61641
2195.10053,2.61603
2195.59491,2.61567
2196.08930,2.61530
2196.58368,2.61493
2197.07806,2.61456
2197.57245,2.61418
2198.06683,2.61380
2198.56121,2.61340
2199.05560,2.61300
2199.54998,2.61259
2200.04436,2.61217
2200.53875,2.61174
2201.03313,2.61130
2201.52752,2.61086
2202.02190,2.61040
2202.51628,2.60994
2203.01067,2.60947
2203.50505,2.60900
2203.99943,2.60853
2204.49382,2.60806
2204.98820,2.60759
2205.48258,2.60714
2205.97697,2.60672
2206.47135,2.60633
2206.96573,2.60598
2207.46012,2.60568
2207.95450,2.60544
2208.44888,2.60527
2208.94327,2.60517
2209.43765,2.60515
2209.93203,2.60521
2210.42642,2.60534
2210.92080,2.60553
2211.41519,2.60577
2211.90957,2.60605
2212.40395,2.60634
2212.89834,2.60664
2213.39272,2.60691
2213.88710,2.60716
2214.38149,2.60735
2214.87587,2.60748
2215.37025,2.60755
2215.86464,2.60754
2216.35902,2.60746
2216.85340,2.60732
2217.34779,2.60713
2217.84217,2.60689
2218.33655,2.60662
2218.83094,2.60634
2219.32532,2.60606
2219.81971,2.60580
2220.31409,2.60556
2220.80847,2.60537
2221.30286,2.60521
2221.79724,2.60509
2222.29162,2.60502
2222.78601,2.60498
2223.28039,2.60497
2223.77477,2.60497
2224.26916,2.60498
2224.76354,2.60499
2225.25792,2.60499
2225.75231,2.60499
2226.24669,2.60497
2226.74107,2.60495
2227.23546,2.60493
2227.72984,2.60492
2228.22422,2.60493
2228.71861,2.60498
2229.21299,2.60507
2229.70738,2.60523
2230.20176,2.60546
2230.69614,2.60577
2231.19053,2.60616
2231.68491,2.60664
2232.17929,2.60719
2232.67368,2.60781
2233.16806,2.60848
2233.66244,2.60919
2234.15683,2.60992
2234.65121,2.61065
2235.14559,2.61137
2235.63998,2.61205
2236.13436,2.61270
2236.62874,2.61329
2237.12313,2.61382
2237.61751,2.61430
2238.11190,2.61473
2238.60628,2.61513
2239.10066,2.61550
2239.59505,2.61586
2240.08943,2.61623
2240.58381,2.61662
2241.07820,2.61706
2241.57258,2.61756
2242.06696,2.61812
2242.56135,2.61877
2243.05573,2.61949
2243.55011,2.62030
2244.04450,2.62117
2244.53888,2.62210
2245.03326,2.62308
2245.52765,2.62408
2246.02203,2.62509
2246.51642,2.62609
2247.01080,2.62706
2247.50518,2.62797
2247.99957,2.62882
2248.49395,2.62958
2248.98833,2.63026
2249.48272,2.63084
2249.97710,2.63133
2250.47148,2.63173
2250.96587,2.63204
2251.46025,2.63229
2251.95463,2.63248
2252.44902,2.63265
2252.94340,2.63279
2253.43778,2.63294
2253.93217,2.63311
2254.42655,2.63332
2254.92093,2.63359
2255.41532,2.63393
2255.90970,2.63434
2256.40409,2.63484
2256.89847,2.63543
2257.39285,2.63610
2257.88724,2.63685
2258.38162,2.63767
2258.87600,2.63854
2259.37039,2.63945
2259.86477,2.64038
2260.35915,2.64132
2260.85354,2.64223
2261.34792,2.64312
2261.84230,2.64395
2262.33669,2.64472
2262.83107,2.64541
2263.32545,2.64602
2263.81984,2.64656
2264.31422,2.64703
2264.80861,2.64744
2265.30299,2.64781
2265.79737,2.64817
2266.29176,2.64853
2266.78614,2.64894
2267.28052,2.64941
2267.77491,2.64999
2268.26929,2.65070
2268.76367,2.65156
2269.25806,2.65259
2269.75244,2.65380
2270.24682,2.65520
2270.74121,2.65678
2271.23559,2.65851
2271.72997,2.66038
2272.22436,2.66235
2272.71874,2.66438
2273.21312,2.66643
2273.70751,2.66845
2274.20189,2.67040
2274.69628,2.67223
2275.19066,2.67390
2275.68504,2.67539
2276.17943,2.67668
2276.67381,2.67775
2277.16819,2.67859
2277.66258,2.67923
2278.15696,2.67966
2278.65134,2.67993
2279.14573,2.68006
2279.64011,2.68009
2280.13449,2.68006
2280.62888,2.68001
2281.12326,2.67999
2281.61764,2.68001
2282.11203,2.68012
2282.60641,2.68034
2283.10080,2.68068
2283.59518,2.68114
2284.08956,2.68174
2284.58395,2.68244
2285.07833,2.68325
2285.57271,2.68414
2286.06710,2.68508
2286.56148,2.68605
2287.05586,2.68701
2287.55025,2.68794
2288.04463,2.68881
2288.53901,2.68959
2289.03340,2.69028
2289.52778,2.69084
2290.02216,2.69129
2290.51655,2.69162
2291.01093,2.69184
2291.50532,2.69198
2291.99970,2.69205
2292.49408,2.69208
2292.98847,2.69210
2293.48285,2.69215
2293.97723,2.69228
2294.47162,2.69249
2294.96600,2.69285
2295.46038,2.69335
2295.95477,2.69404
2296.44915,2.69492
2296.94353,2.69599
2297.43792,2.69726
2297.93230,2.69870
2298.42668,2.70029
2298.92107,2.70201
2299.41545,2.70380
2299.90983,2.70563
2300.40422,2.70745
2300.89860,2.70920
2301.39299,2.71085
2301.88737,2.71234
2302.38175,2.71364
2302.87614,2.71472
2303.37052,2.71556
2303.86490,2.71615
2304.35929,2.71649
2304.85367,2.71659
2305.34805,2.71648
2305.84244,2.71618
2306.33682,2.71574
2306.83120,2.71519
2307.32559,2.71458
2307.81997,2.71396
2308.31435,2.71336
2308.80874,2.71281
2309.30312,2.71236
2309.79751,2.71202
2310.29189,2.71181
2310.78627,2.71172
2311.28066,2.71176
2311.77504,2.71190
2312.26942,2.71213
2312.76381,2.71243
2313.25819,2.71278
2313.75257,2.71314
2314.24696,2.71349
2314.74134,2.71382
2315.23572,2.71410
2315.73011,2.71433
2316.22449,2.71450
2316.71887,2.71460
2317.21326,2.71466
2317.70764,2.71467
2318.20202,2.71465
2318.69641,2.71461
2319.19079,2.71457
2319.68518,2.71454
2320.17956,2.71453
2320.67394,2.71456
2321.16833,2.71463
2321.66271,2.71474
2322.15709,2.71489
2322.65148,2.71506
2323.14586,2.71526
2323.64024,2.71546
2324.13463,2.71566
2324.62901,2.71584
2325.12339,2.71600
2325.61778,2.71612
2326.11216,2.71621
2326.60654,2.71625
2327.10093,2.71626
2327.59531,2.71624
2328.08970,2.71619
2328.58408,2.71612
2329.07846,2.71605
2329.57285,2.71599
2330.06723,2.71594
2330.56161,2.71592
2331.05600,2.71593
2331.55038,2.71597
2332.04476,2.71605
2332.53915,2.71616
2333.03353,2.71630
2333.52791,2.71646
2334.02230,2.71665
2334.51668,2.71684
2335.01106,2.71703
2335.50545,2.71723
2335.99983,2.71742
2336.49421,2.71762
2336.98860,2.71782
2337.48298,2.71802
2337.97737,2.71825
2338.47175,2.71849
2338.96613,2.71875
2339.46052,2.71904
2339.95490,2.71934
2340.44928,2.71965
2340.94367,2.71996
2341.43805,2.72024
2341.93243,2.72046
2342.42682,2.72061
2342.92120,2.72064
2343.41558,2.72053
2343.90997,2.72026
2344.40435,2.71980
2344.89873,2.71913
2345.39312,2.71825
2345.88750,2.71717
2346.38189,2.71590
2346.87627,2.71448
2347.37065,2.71292
2347.86504,2.71129
2348.35942,2.70964
2348.85380,2.70801
2349.34819,2.70647
2349.84257,2.70506
2350.33695,2.70383
2350.83134,2.70281
2351.32572,2.70203
2351.82010,2.70149
2352.31449,2.70119
2352.80887,2.70111
2353.30325,2.70122
2353.79764,2.70149
2354.29202,2.70187
2354.78641,2.70233
2355.28079,2.70280
2355.77517,2.70326
2356.26956,2.70366
2356.76394,2.70398
2357.25832,2.70419
2357.75271,2.70429
2358.24709,2.70426
2358.74147,2.70412
2359.23586,2.70387
2359.73024,2.70353
2360.22462,2.70311
2360.71901,2.70264
2361.21339,2.70213
2361.70777,2.70159
2362.20216,2.70103
2362.69654,2.70046
2363.19092,2.69989
2363.68531,2.69930
2364.17969,2.69871
2364.67408,2.69809
2365.16846,2.69744
2365.66284,2.69677
2366.15723,2.69607
2366.65161,2.69532
2367.14599,2.69454
2367.64038,2.69372
2368.13476,2.69287
2368.62914,2.69198
2369.12353,2.69105
2369.61791,2.69008
2370.11229,2.68907
2370.60668,2.68801
2371.10106,2.68688
2371.59544,2.68568
2372.08983,2.68440
2372.58421,2.68301
2373.07860,2.68152
2373.57298,2.67991
2374.06736,2.67818
2374.56175,2.67633
2375.05613,2.67437
2375.55051,2.67231
2376.04490,2.67018
2376.53928,2.66801
2377.03366,2.66583
2377.52805,2.66368
2378.02243,2.66160
2378.51681,2.65962
2379.01120,2.65777
2379.50558,2.65610
2379.99996,2.65460
2380.49435,2.65331
2380.98873,2.65222
2381.48311,2.65132
2381.97750,2.65059
2382.47188,2.65002
2382.96627,2.64956
2383.46065,2.64918
2383.95503,2.64883
2384.44942,2.64848
2384.94380,2.64807
2385.43818,2.64758
2385.93257,2.64695
2386.42695,2.64618
2386.92133,2.64522
2387.41572,2.64407
2387.91010,2.64272
2388.40448,2.64117
2388.89887,2.63943
2389.39325,2.63749
2389.88763,2.63538
2390.38202,2.63312
2390.87640,2.63071
2391.37079,2.62819
2391.86517,2.62557
2392.35955,2.62287
2392.85394,2.62012
2393.34832,2.61734
2393.84270,2.61455
2394.33709,2.61177
2394.83147,2.60903
2395.32585,2.60635
2395.82024,2.60374
2396.31462,2.60124
2396.80900,2.59887
2397.30339,2.59666
2397.79777,2.59462
2398.29215,2.59277
2398.78654,2.59114
2399.28092,2.58973
2399.77531,2.58855
2400.26969,2.58761
2400.76407,2.58689
2401.25846,2.58637
2401.75284,2.58604
2402.24722,2.58585
2402.74161,2.58578
2403.23599,2.58577
2403.73037,2.58576
2404.22476,2.58571
2404.71914,2.58556
2405.21352,2.58525
2405.70791,2.58473
2406.20229,2.58395
2406.69667,2.58286
2407.19106,2.58145
2407.68544,2.57970
2408.17982,2.57760
2408.67421,2.57516
2409.16859,2.57240
2409.66298,2.56937
2410.15736,2.56612
2410.65174,2.56270
2411.14613,2.55919
2411.64051,2.55566
2412.13489,2.55219
2412.62928,2.54885
2413.12366,2.54572
2413.61804,2.54285
2414.11243,2.54029
2414.60681,2.53810
2415.10119,2.53629
2415.59558,2.53486
2416.08996,2.53381
2416.58434,2.53311
2417.07873,2.53271
2417.57311,2.53257
2418.06750,2.53260
2418.56188,2.53275
2419.05626,2.53292
2419.55065,2.53304
2420.04503,2.53303
2420.53941,2.53282
2421.03380,2.53236
2421.52818,2.53160
2422.02256,2.53051
2422.51695,2.52909
2423.01133,2.52732
2423.50571,2.52524
2424.00010,2.52288
2424.49448,2.52027
2424.98886,2.51749
2425.48325,2.51457
2425.97763,2.51159
2426.47201,2.50861
2426.96640,2.50568
2427.46078,2.50284
2427.95517,2.50014
2428.44955,2.49760
2428.94393,2.49523
2429.43832,2.49303
2429.93270,2.49099
2430.42708,2.48909
2430.92147,2.48729
2431.41585,2.48557
2431.91023,2.48389
2432.40462,2.48221
2432.89900,2.48048
2433.39338,2.47869
2433.88777,2.47680
2434.38215,2.47479
2434.87653,2.47266
2435.37092,2.47038
2435.86530,2.46797
2436.35969,2.46542
2436.85407,2.46276
2437.34845,2.45998
2437.84284,2.45711
2438.33722,2.45417
2438.83160,2.45117
2439.32599,2.44813
2439.82037,2.44508
2440.31475,2.44202
2440.80914,2.43898
2441.30352,2.43598
2441.79790,2.43302
2442.29229,2.43014
2442.78667,2.42735
2443.28105,2.42466
2443.77544,2.42209
2444.26982,2.41965
2444.76420,2.41736
2445.25859,2.41523
2445.75297,2.41324
2446.24736,2.41142
2446.74174,2.40974
2447.23612,2.40821
2447.73051,2.40679
2448.22489,2.40547
2448.71927,2.40423
2449.21366,2.40305
2449.70804,2.40188
2450.20242,2.40072
2450.69681,2.39953
2451.19119,2.39831
2451.68557,2.39703
2452.17996,2.39569
2452.67434,2.39428
2453.16872,2.39280
2453.66311,2.39126
2454.15749,2.38967
2454.65188,2.38803
2455.14626,2.38635
2455.64064,2.38463
2456.13503,2.38287
2456.62941,2.38108
2457.12379,2.37925
2457.61818,2.37736
2458.11256,2.37540
2458.60694,2.37336
2459.10133,2.37121
2459.59571,2.36894
2460.09009,2.36654
2460.58448,2.36399
2461.07886,2.36129
2461.57324,2.35844
2462.06763,2.35544
2462.56201,2.35230
2463.05640,2.34906
2463.55078,2.34572
2464.04516,2.34232
2464.53955,2.33890
2465.03393,2.33549
2465.52831,2.33213
2466.02270,2.32886
2466.51708,2.32571
2467.01146,2.32272
2467.50585,2.31991
2468.00023,2.31731
2468.49461,2.31493
2468.98900,2.31278
2469.48338,2.31087
2469.97776,2.30920
2470.47215,2.30775
2470.96653,2.30650
2471.46091,2.30544
2471.95530,2.30452
2472.44968,2.30370
2472.94407,2.30295
2473.43845,2.30221
2473.93283,2.30144
2474.42722,2.30057
2474.92160,2.29956
2475.41598,2.29837
2475.91037,2.29694
2476.40475,2.29525
2476.89913,2.29327
2477.39352,2.29098
2477.88790,2.28839
2478.38228,2.28550
2478.87667,2.28234
2479.37105,2.27893
2479.86543,2.27531
2480.35982,2.27154
2480.85420,2.26765
2481.34859,2.26371
2481.84297,2.25977
2482.33735,2.25587
2482.83174,2.25206
2483.32612,2.24839
2483.82050,2.24488
2484.31489,2.24154
2484.80927,2.23840
2485.30365,2.23543
2485.79804,2.23265
2486.29242,2.23003
2486.78680,2.22757
2487.28119,2.22524
2487.77557,2.22303
2488.26995,2.22092
2488.76434,2.21887
2489.25872,2.21689
2489.75310,2.21499
2490.24749,2.21319
2490.74187,2.21149
2491.23626,2.20991
2491.73064,2.20846
2492.22502,2.20715
2492.71941,2.20598
2493.21379,2.20496
2493.70817,2.20410
2494.20256,2.20339
2494.69694,2.20339
2495.19132,2.20339
2495.68571,2.20339
2496.18009,2.20339
2496.67447,2.20339
2497.16886,2.20339
2497.66324,2.20339
2498.15762,2.20339
2498.65201,2.20339
2499.14639,2.20339
2499.64078,2.20339
2500.13516,2.20339
