M- 
Integration time: 130 ms
Average: 10 scans
Nr of pixels used for smoothing: 3
Data measured with spectrometer serial number: 0411041S1
Wave   ;Dark     ;Ref      ;Sample   ;Transmittance
[nm]   ;[counts] ;[counts] ;[counts] ;[% transmittance] 
299.87;-1.8500;6639.5;236.80;3.5934
300.16;-13.850;7149.9;257.52;3.7882
300.45;25.850;6471.0;271.80;3.8161
300.74;8.7542;6559.3;251.63;3.7078
301.04;12.596;6494.0;256.05;3.7562
301.33;11.525;6562.5;256.08;3.7331
301.62;8.1000;6558.4;256.09;3.7859
301.91;11.229;6708.9;268.30;3.8381
302.20;11.483;6995.1;281.98;3.8734
302.49;7.3542;6941.6;281.90;3.9593
302.79;1.2542;6826.5;271.45;3.9588
303.08;-1.6667;6674.3;264.90;3.9929
303.37;-1.9333;6674.9;268.35;4.0481
303.66;-2.3500;6660.0;267.56;4.0513
303.95;-2.3708;6791.6;273.31;4.0577
304.24;0.2208;6851.7;279.35;4.0740
304.53;1.9417;6676.4;278.05;4.1368
304.83;2.2458;6788.4;289.00;4.2256
305.12;4.8875;6757.6;292.08;4.2530
305.41;8.3917;6746.0;298.81;4.3105
305.70;4.6292;6879.0;305.63;4.3787
305.99;4.0875;6721.2;299.81;4.4025
306.28;5.1042;6614.4;300.09;4.4632
306.57;-0.4417;6557.7;292.65;4.4692
306.87;-0.2167;6479.6;293.50;4.5328
307.16;0.1500;6445.5;297.44;4.6124
307.45;0.3708;6342.7;293.61;4.6235
307.74;5.2417;6319.6;303.55;4.7243
308.03;4.2917;6314.7;308.59;4.8222
308.32;1.1583;6561.0;317.94;4.8290
308.61;1.3417;6844.0;333.20;4.8498
308.90;-2.5167;6964.3;340.30;4.9208
309.20;3.6250;7324.2;366.40;4.9555
309.49;5.3625;7495.5;378.65;4.9837
309.78;2.5208;7620.3;387.16;5.0493
310.07;7.4417;7751.9;404.27;5.1240
310.36;5.9583;7673.8;407.65;5.2387
310.65;11.050;7694.3;417.35;5.2880
310.94;12.608;7688.4;417.77;5.2784
311.23;5.1208;7510.3;409.15;5.3833
311.52;3.6750;7434.2;408.29;5.4453
311.82;3.5042;7431.9;409.46;5.4650
312.11;1.7208;7325.0;407.01;5.5343
312.40;0.08333;7388.8;412.13;5.5766
312.69;-1.7917;7441.3;420.41;5.6724
312.98;-5.1417;7356.2;418.52;5.7552
313.27;-2.0750;7593.3;438.39;5.7991
313.56;-1.7458;7720.0;455.29;5.9188
313.85;-1.8125;7656.7;460.26;6.0334
314.14;0.9083;7898.3;482.88;6.1030
314.43;-2.2167;7903.4;489.53;6.2202
314.72;1.4625;8068.1;510.87;6.3150
315.02;1.8125;8173.9;520.55;6.3477
315.31;1.0125;7951.3;515.74;6.4743
315.60;2.3583;7966.5;526.77;6.5846
315.89;-0.2083;7991.8;535.07;6.6977
316.18;5.2375;8016.6;554.16;6.8518
316.47;7.6333;7874.4;550.75;6.9039
316.76;4.7167;7896.1;560.18;7.0388
317.05;5.0292;8021.3;581.83;7.1953
317.34;0.2000;8070.8;589.27;7.2990
317.63;-0.05417;8081.7;598.71;7.4088
317.92;0.2500;7905.5;590.04;7.4607
318.21;-6.9083;7981.3;596.60;7.5551
318.50;-5.0667;8053.7;616.41;7.7118
318.79;-4.3125;7968.2;621.20;7.8458
319.08;-4.7125;7779.2;617.55;7.9942
319.38;0.3500;7476.2;607.26;8.1182
319.67;-1.1042;7562.6;621.62;8.2330
319.96;3.1167;7539.4;635.06;8.3854
320.25;7.4708;7403.1;640.61;8.5610
320.54;7.4667;7456.7;659.20;8.7489
320.83;12.167;7622.1;690.47;8.9134
321.12;10.529;8086.9;742.34;9.0611
321.41;11.521;8368.5;778.94;9.1829
321.70;10.246;8349.1;787.49;9.3208
321.99;4.0208;8263.4;787.61;9.4873
322.28;3.9375;8512.9;820.41;9.5954
322.57;1.2083;8637.0;838.48;9.6954
322.86;-4.6792;8585.1;840.77;9.8425
323.15;-3.8042;8584.6;849.91;9.9403
323.44;-4.2167;8405.5;839.37;10.031
323.73;-4.7292;8489.5;855.23;10.124
324.02;-0.07083;8486.0;864.13;10.184
324.31;-0.8833;8256.3;850.53;10.311
324.60;3.1542;7951.1;832.03;10.429
324.89;3.0875;7780.1;819.07;10.492
325.18;-2.5000;7650.0;813.36;10.661
325.47;-3.5250;7684.6;827.29;10.806
325.76;-3.2708;7983.2;864.47;10.865
326.05;-5.3792;8131.6;891.09;11.017
326.34;-7.7708;8391.9;926.03;11.117
326.63;-4.9250;8557.1;951.65;11.172
326.92;-2.9875;8685.0;976.10;11.270
327.21;-0.06250;8736.3;986.63;11.294
327.50;6.3667;8708.1;996.13;11.374
327.79;3.1250;8869.2;1027.5;11.554
328.08;-0.9042;8695.7;1011.1;11.637
328.37;2.4250;8567.7;1003.6;11.689
328.66;-2.0667;8625.3;1014.9;11.788
328.95;0.8458;8570.1;1016.5;11.852
329.24;-0.5583;8688.8;1037.8;11.949
329.53;-4.6083;8626.8;1033.1;12.023
329.82;5.4667;8438.5;1020.8;12.040
330.11;5.5708;8343.3;1016.0;12.119
330.40;1.4000;8289.0;1015.0;12.230
330.69;2.8875;8209.0;1013.4;12.315
330.98;0.8833;8284.7;1027.2;12.389
331.27;0.3042;8331.2;1040.1;12.481
331.56;-4.3542;8101.9;1014.6;12.570
331.85;-10.521;8390.7;1051.8;12.645
332.14;-6.2417;8682.2;1090.9;12.627
332.43;-8.5708;8647.2;1087.4;12.662
332.72;-11.854;8764.2;1109.7;12.780
333.01;-9.5500;8644.1;1098.7;12.806
333.30;-11.500;8682.6;1104.6;12.837
333.59;-10.0000;8833.3;1128.9;12.879
333.88;-9.6417;8643.5;1111.5;12.956
334.17;-9.7083;8567.1;1111.1;13.068
334.46;-4.0250;8434.6;1101.4;13.100
334.75;-4.2875;8346.8;1093.1;13.141
335.04;-4.8958;8560.2;1131.4;13.266
335.33;-1.9875;8634.3;1149.5;13.333
335.62;-1.7375;8617.3;1152.2;13.388
335.91;1.3042;8683.6;1167.4;13.431
336.19;-1.8333;8827.6;1187.6;13.471
336.48;-6.0042;9145.4;1234.4;13.554
336.77;-0.3500;9125.5;1235.6;13.544
337.06;-0.3208;8945.7;1210.6;13.536
337.35;-0.3208;8957.7;1215.3;13.570
337.64;-0.5875;8612.6;1168.6;13.575
337.93;1.4375;8135.0;1108.2;13.607
338.22;8.5958;7643.2;1048.8;13.624
338.51;7.8917;7300.0;1004.3;13.665
338.80;5.3917;7353.2;1017.8;13.779
339.09;6.7625;7369.3;1029.0;13.885
339.38;9.7083;7383.5;1036.0;13.919
339.67;6.7792;7625.0;1073.4;14.001
339.96;3.3708;8019.7;1134.3;14.108
340.24;-0.7958;8448.5;1193.1;14.130
340.53;-2.9250;8596.6;1213.5;14.145
340.82;-2.9042;8602.6;1216.0;14.165
341.11;-8.7000;8652.9;1223.1;14.221
341.40;-8.9875;8528.2;1206.8;14.241
341.69;-7.8083;8493.4;1206.9;14.289
341.98;-10.671;8438.4;1201.3;14.345
342.27;-8.9917;8246.1;1177.1;14.368
342.56;-6.5708;8021.9;1150.7;14.415
342.85;-8.1292;7616.1;1089.0;14.389
343.14;-7.8917;7373.9;1056.8;14.423
343.42;-6.9708;7226.8;1038.5;14.452
343.71;-8.3792;7011.0;1003.2;14.411
344.00;-7.3583;6797.4;974.22;14.425
344.29;-8.5750;6721.3;965.94;14.481
344.58;-9.0917;6927.4;1000.9;14.561
344.87;-1.7333;7016.0;1020.1;14.560
345.16;-0.3792;7221.0;1055.4;14.621
345.45;-3.2208;7387.8;1086.0;14.736
345.74;-3.3542;7482.0;1104.2;14.796
346.02;-1.9542;7648.0;1130.8;14.808
346.31;-0.9542;7716.0;1144.1;14.838
346.60;-2.4333;7685.3;1142.0;14.887
346.89;-4.9167;7453.0;1109.7;14.945
347.18;-6.3875;7411.4;1106.2;14.999
347.47;-5.3417;7244.3;1082.2;15.002
347.76;-4.3250;7142.3;1068.6;15.013
348.05;-3.9667;7098.0;1061.7;15.005
348.33;-2.6542;6937.9;1037.9;14.993
348.62;-1.1458;7075.5;1057.8;14.964
348.91;-4.7917;7217.8;1082.1;15.048
349.20;-3.6167;7392.6;1113.3;15.102
349.49;-2.7917;7466.4;1122.9;15.072
349.78;-2.5292;7525.7;1137.5;15.143
350.07;-4.3167;7760.3;1174.9;15.186
350.35;-5.3500;7823.3;1188.0;15.244
350.64;-1.7292;7923.9;1211.3;15.306
350.93;-0.07500;7877.2;1200.3;15.239
351.22;3.7083;7850.8;1200.7;15.254
351.51;0.7583;7973.4;1224.6;15.350
351.80;-0.5917;7831.0;1204.2;15.384
352.08;-0.6250;7844.3;1210.9;15.443
352.37;-1.9667;7824.3;1208.1;15.461
352.66;-5.1750;7637.9;1178.3;15.484
352.95;-5.3875;7491.8;1156.2;15.493
353.24;-4.3208;7446.3;1148.5;15.473
353.53;-6.3333;7446.9;1147.5;15.480
353.81;-2.5500;7271.3;1119.2;15.422
354.10;-2.2167;6883.3;1059.6;15.420
354.39;-2.1208;6665.1;1027.7;15.446
354.68;-1.3333;6842.0;1058.9;15.493
354.97;-2.3000;6963.0;1084.8;15.607
355.26;-2.4958;7027.6;1097.1;15.641
355.54;-7.0000;7209.9;1129.4;15.747
355.83;-8.6000;7495.4;1178.9;15.824
356.12;-8.8750;7754.5;1221.3;15.846
356.41;-4.7083;7924.3;1251.3;15.841
356.70;-4.2667;7896.5;1245.3;15.816
356.98;-11.092;7894.6;1244.5;15.882
357.27;-0.7208;7980.8;1263.2;15.836
357.56;5.8500;7710.4;1225.4;15.829
357.85;6.2333;7574.2;1203.5;15.820
358.14;8.9708;7458.7;1181.7;15.743
358.42;5.6333;7315.0;1162.3;15.825
358.71;10.317;7491.2;1198.0;15.876
359.00;10.225;7383.1;1181.6;15.888
359.29;0.2708;7141.0;1138.3;15.937
359.58;-0.3917;7115.1;1135.6;15.965
359.86;-0.4667;7333.1;1175.7;16.038
360.15;-2.8792;7745.8;1246.5;16.124
360.44;-4.6292;7957.4;1281.1;16.148
360.73;-9.0792;7845.1;1257.2;16.122
361.01;-5.7333;7862.0;1263.8;16.136
361.30;-6.5417;8191.8;1316.9;16.143
361.59;-10.408;8459.4;1351.5;16.079
361.88;-7.5042;8398.8;1345.8;16.099
362.17;-10.500;8249.8;1322.5;16.138
362.45;-7.0417;8094.8;1301.7;16.154
362.74;-1.4417;8001.3;1296.6;16.220
363.03;-5.5958;8110.4;1310.2;16.212
363.32;3.179E-8;7959.9;1288.6;16.189
363.60;4.2417;7882.7;1280.7;16.202
363.89;0.6167;7939.5;1284.6;16.173
364.18;0.5458;7795.2;1259.5;16.152
364.47;-0.8542;7895.0;1275.0;16.159
364.75;-1.0458;7810.7;1259.6;16.138
365.04;-0.6083;7550.3;1218.2;16.141
365.33;-3.7792;7571.9;1224.9;16.219
365.62;-8.9167;7355.8;1191.2;16.296
365.90;-7.9625;7170.1;1162.2;16.302
366.19;-7.0625;7171.5;1161.8;16.283
366.48;-7.6583;7057.6;1143.9;16.299
366.77;-3.6583;7136.2;1163.1;16.342
367.05;-2.7875;7233.1;1183.6;16.395
367.34;0.2083;7193.3;1178.7;16.383
367.63;4.1792;7267.1;1192.6;16.363
367.91;6.0542;7386.2;1218.8;16.433
368.20;8.2500;7498.1;1240.5;16.452
368.49;5.7125;7649.4;1260.5;16.415
368.78;1.7917;7621.1;1251.0;16.396
369.06;1.2292;7629.7;1250.0;16.370
369.35;-1.5500;7697.2;1260.7;16.396
369.64;-4.6333;7671.6;1252.7;16.379
369.93;-7.2375;7642.8;1242.7;16.339
370.21;-9.4625;7378.4;1197.3;16.335
370.50;-9.1542;7395.0;1199.6;16.326
370.79;-8.7375;7366.2;1194.5;16.315
371.07;-4.1292;7182.9;1166.5;16.288
371.36;-2.5917;7183.3;1167.0;16.275
371.65;1.9333;7068.7;1152.6;16.283
371.93;3.3917;7150.2;1164.9;16.252
372.22;1.6792;7244.0;1180.1;16.272
372.51;6.0708;7222.9;1181.9;16.293
372.80;7.8208;7239.6;1184.2;16.267
373.08;11.838;7325.8;1201.5;16.266
373.37;10.229;7334.1;1196.9;16.203
373.66;7.3292;7396.8;1207.0;16.235
373.94;9.5167;7388.0;1210.8;16.281
374.23;8.6833;7314.5;1195.2;16.241
374.52;4.9500;7374.8;1204.5;16.276
374.80;-0.3667;7249.1;1181.6;16.304
375.09;-4.7500;7217.6;1174.1;16.323
375.38;-0.9875;7183.1;1171.6;16.321
375.66;-0.6500;6899.9;1121.7;16.265
375.95;-1.6333;6810.1;1107.4;16.282
376.24;0.7500;6739.9;1100.5;16.318
376.52;-2.1792;6635.8;1079.1;16.290
376.81;1.0875;6776.4;1107.7;16.333
377.10;-1.7333;6793.4;1113.2;16.408
377.38;-6.8417;6889.8;1127.2;16.444
377.67;-4.8167;7044.9;1154.1;16.439
377.96;-6.1250;7101.2;1160.4;16.414
378.24;-2.6458;7215.1;1180.6;16.393
378.53;3.2458;7289.0;1193.4;16.335
378.82;0.9625;7333.6;1197.8;16.322
379.10;0.2583;7320.7;1191.0;16.266
379.39;2.3875;7384.3;1202.8;16.261
379.68;15.604;7497.7;1241.0;16.377
379.96;23.225;7564.6;1258.0;16.374
380.25;17.800;7538.9;1248.2;16.360
380.54;17.371;7412.0;1226.0;16.345
380.82;12.017;7331.4;1204.9;16.298
381.11;17.171;7263.2;1203.3;16.370
381.39;14.650;7197.5;1187.4;16.327
381.68;1.1333;7085.8;1149.3;16.206
381.97;-2.5417;6965.1;1126.8;16.208
382.25;-2.2000;6914.3;1120.3;16.230
382.54;0.5458;6762.4;1101.8;16.286
382.83;7.1875;6689.5;1093.3;16.253
383.11;12.829;6760.5;1105.3;16.190
383.40;12.842;6752.3;1107.8;16.246
383.68;10.879;6645.6;1093.1;16.312
383.97;9.0833;6548.1;1077.2;16.335
384.26;8.1125;6405.2;1054.3;16.354
384.54;7.0042;6389.7;1051.0;16.357
384.83;4.3792;6450.3;1056.4;16.321
385.12;2.9333;6339.7;1032.9;16.253
385.40;2.4750;6407.0;1042.6;16.241
385.69;3.0917;6544.8;1063.3;16.207
385.97;4.6250;6582.5;1067.9;16.164
386.26;0.8958;6871.2;1110.4;16.150
386.55;3.0125;7109.5;1145.2;16.072
386.83;1.9417;7156.9;1156.9;16.143
387.12;-2.4042;7280.2;1177.9;16.207
387.40;-1.7917;7347.8;1186.5;16.168
387.69;-4.0625;7554.6;1218.3;16.172
387.98;-2.2458;7772.3;1256.3;16.187
388.26;0.2375;7736.2;1256.2;16.235
388.55;0.8250;7673.3;1246.4;16.234
388.83;-1.5500;7634.5;1239.4;16.251
389.12;-6.1167;7554.7;1222.3;16.248
389.40;-8.0208;7396.1;1195.1;16.249
389.69;-9.0042;7242.2;1170.5;16.266
389.98;-3.3375;7165.1;1156.6;16.180
390.26;-4.7750;7174.8;1158.3;16.200
390.55;-4.0792;7285.5;1177.7;16.211
390.83;2.5792;7443.8;1206.6;16.181
391.12;2.7042;7478.9;1212.9;16.188
391.40;10.425;7423.6;1207.6;16.149
391.69;8.6333;7356.8;1194.5;16.138
391.98;5.5500;7362.4;1190.6;16.108
392.26;9.2417;7522.8;1214.8;16.045
392.55;6.1250;7477.2;1206.2;16.062
392.83;8.0250;7427.7;1197.3;16.029
393.12;6.8583;7574.9;1215.6;15.972
393.40;5.0667;7750.7;1243.9;15.995
393.69;5.8333;7935.1;1273.2;15.984
393.97;0.8042;7937.5;1272.5;16.023
394.26;-1.8167;7952.0;1272.2;16.018
394.54;-4.0417;8083.8;1288.5;15.982
394.83;-2.9125;8093.9;1293.1;16.007
395.11;-1.0083;8019.2;1281.9;15.995
395.40;-2.6583;7969.0;1271.3;15.981
395.69;-0.4625;7972.4;1270.5;15.941
395.97;3.7417;8076.5;1285.7;15.881
396.26;5.4292;8100.9;1291.0;15.880
396.54;1.8958;7986.2;1269.2;15.872
396.83;1.6292;8054.4;1275.8;15.823
397.11;2.8792;8143.3;1290.2;15.814
397.40;3.8042;8371.9;1321.4;15.745
397.68;5.2208;8439.4;1330.5;15.713
397.97;0.8125;8321.6;1309.1;15.723
398.25;0.1458;8540.8;1336.8;15.651
398.54;-0.3583;8626.9;1347.0;15.618
398.82;-1.4167;8781.9;1372.0;15.636
399.11;-2.1958;8824.0;1376.1;15.616
399.39;-7.5958;8712.9;1353.4;15.607
399.68;-10.842;8819.6;1370.4;15.642
399.96;-10.779;8775.0;1361.5;15.620
400.25;-9.8083;8522.3;1321.6;15.605
400.53;-5.4250;8414.2;1305.3;15.568
400.82;-6.2708;8257.0;1275.3;15.509
401.10;-5.6667;8072.8;1247.8;15.516
401.39;-1.5792;8083.6;1250.3;15.484
401.67;-5.0458;7915.6;1220.1;15.468
401.96;-5.1958;7803.3;1202.0;15.460
402.24;-7.9833;7787.1;1195.8;15.442
402.53;-6.9333;7643.2;1170.4;15.389
402.81;-2.8667;7610.0;1162.9;15.313
403.10;-4.5750;7618.4;1157.3;15.242
403.38;-5.9250;7519.2;1137.2;15.191
403.67;-1.3042;7649.1;1163.4;15.224
403.95;2.1167;7651.8;1165.1;15.203
404.24;1.9958;7560.1;1153.5;15.236
404.52;2.5083;7673.3;1174.5;15.279
404.80;-1.5917;7777.8;1190.0;15.318
405.09;0.2375;7941.7;1223.1;15.399
405.37;1.4625;7863.6;1209.0;15.359
405.66;-0.02917;7787.4;1190.9;15.294
405.94;0.1792;7893.6;1207.1;15.290
406.23;1.4708;7885.7;1210.1;15.329
406.51;2.0875;7861.2;1208.8;15.354
406.80;0.9292;7747.2;1187.0;15.311
407.08;2.5292;7596.9;1164.0;15.294
407.37;7.3208;7673.5;1180.7;15.306
407.65;11.742;7749.1;1195.0;15.293
407.93;9.5042;7685.8;1183.1;15.288
408.22;6.3625;7690.2;1176.6;15.230
408.50;3.8292;7676.9;1171.3;15.215
408.79;3.0667;7746.2;1184.2;15.254
409.07;1.9042;7824.9;1191.1;15.201
409.36;-0.1500;7758.7;1180.0;15.210
409.64;-0.5458;7707.8;1171.1;15.200
409.92;3.7625;7813.0;1187.8;15.162
410.21;4.3625;7918.1;1203.0;15.147
410.49;1.5792;7782.0;1174.3;15.072
410.78;4.6792;7624.6;1154.4;15.089
411.06;1.8625;7507.5;1136.0;15.111
411.34;1.6333;7493.8;1132.9;15.099
411.63;-1.0917;7478.0;1129.1;15.111
411.91;2.2292;7400.2;1116.9;15.067
412.20;5.9917;7441.5;1125.9;15.062
412.48;5.1208;7505.1;1132.4;15.030
412.77;10.212;7604.1;1144.7;14.939
413.05;7.4625;7660.0;1149.0;14.917
413.33;9.8667;7505.5;1127.8;14.915
413.62;7.3333;7432.6;1112.5;14.883
413.90;2.1708;7396.1;1099.3;14.838
414.19;-0.9417;7369.3;1093.6;14.850
414.47;-1.7167;7370.1;1092.5;14.843
414.75;-1.0708;7230.7;1074.1;14.867
415.04;-3.8208;7252.9;1069.0;14.783
415.32;-1.1917;7237.7;1065.3;14.733
415.60;-0.08333;7183.5;1062.7;14.795
415.89;2.7208;7179.3;1058.1;14.706
416.17;3.0875;7009.8;1033.0;14.699
416.46;-0.07083;7015.5;1028.4;14.660
416.74;-0.6375;7122.2;1042.9;14.651
417.02;-8.334E-3;7132.2;1046.2;14.668
417.31;-0.7958;7128.0;1035.0;14.530
417.59;-5.0125;7036.6;1015.0;14.486
417.87;-8.1042;6983.6;1004.4;14.481
418.16;-5.9875;7072.9;1014.9;14.421
418.44;-4.3250;7058.0;1008.1;14.335
418.73;-4.4917;7002.5;991.31;14.211
419.01;-4.7708;7100.6;1004.1;14.198
419.29;-6.8625;7252.3;1023.9;14.199
419.58;-2.7000;7427.0;1049.2;14.159
419.86;2.6708;7522.6;1066.4;14.146
420.14;3.6792;7639.1;1081.2;14.112
420.43;5.0083;7843.2;1113.4;14.141
420.71;2.5458;7943.2;1124.5;14.129
420.99;4.1417;8009.0;1129.7;14.061
421.28;9.0833;8101.3;1146.5;14.056
421.56;5.7458;8142.8;1146.5;14.019
421.84;1.8000;8196.7;1148.3;13.991
422.13;1.9583;8123.3;1131.7;13.911
422.41;2.3042;7942.4;1101.6;13.844
422.69;6.6583;7751.9;1079.4;13.851
422.98;4.1417;7538.3;1046.3;13.832
423.26;0.6875;7490.8;1035.5;13.815
423.54;3.1208;7317.7;1007.8;13.736
423.83;1.9625;7165.2;983.98;13.709
424.11;4.6208;7191.2;992.55;13.747
424.39;2.5417;7204.5;993.11;13.754
424.68;1.4833;7373.7;1014.1;13.735
424.96;3.2042;7443.5;1024.6;13.728
425.24;-0.3250;7430.5;1015.6;13.671
425.52;1.4917;7460.5;1018.5;13.635
425.81;4.2750;7452.4;1019.9;13.635
426.09;2.8500;7415.6;1009.7;13.582
426.37;4.3375;7433.1;1011.7;13.561
426.66;4.2875;7439.6;1006.5;13.479
426.94;2.3167;7394.5;995.13;13.431
427.22;2.2083;7434.5;1003.4;13.471
427.51;3.4542;7481.4;1012.0;13.487
427.79;3.4792;7593.9;1026.3;13.476
428.07;-0.05833;7634.8;1027.2;13.454
428.35;-1.4542;7643.1;1029.6;13.488
428.64;-5.5167;7773.3;1046.9;13.529
428.92;-2.5833;7953.0;1075.1;13.546
429.20;-0.1792;8198.8;1107.0;13.504
429.49;-6.4625;8410.3;1127.7;13.474
429.77;-7.8417;8601.3;1156.7;13.527
430.05;-8.4958;8647.1;1164.8;13.555
430.33;-8.1917;8687.9;1170.2;13.551
430.62;-7.7417;8621.0;1161.7;13.553
430.90;-10.108;8301.0;1117.4;13.566
431.18;-8.1125;7952.8;1073.4;13.586
431.46;-3.1917;7523.5;1019.0;13.581
431.75;-0.2417;7252.2;981.58;13.538
432.03;5.2375;7043.1;953.28;13.471
432.31;7.7167;6719.9;909.79;13.439
432.59;15.508;6613.2;901.93;13.435
432.88;22.367;6821.5;934.65;13.418
433.16;18.125;6968.0;956.09;13.496
433.44;20.025;7068.6;974.77;13.545
433.72;18.833;6992.8;964.65;13.562
434.01;16.371;6878.1;948.98;13.591
434.29;16.625;7030.8;971.09;13.608
434.57;5.8208;6967.9;961.09;13.721
434.85;6.8750;6871.9;950.25;13.742
435.14;10.004;6755.4;935.54;13.721
435.42;6.2208;6730.2;931.14;13.755
435.70;8.1750;6969.6;970.50;13.824
435.98;3.0792;6966.7;971.22;13.903
436.26;5.5917;6932.7;968.16;13.896
436.55;6.8417;6868.5;957.97;13.862
436.83;6.1583;6798.0;945.96;13.837
437.11;7.4792;6827.3;948.60;13.800
437.39;1.4917;6682.8;922.07;13.778
437.68;1.4542;6581.6;909.09;13.794
437.96;0.1875;6644.5;916.45;13.790
438.24;0.9792;6781.3;934.56;13.769
438.52;1.1875;6770.9;934.21;13.782
438.80;-4.6500;6695.5;924.15;13.862
439.09;-3.4583;6622.8;918.70;13.917
439.37;-2.6917;6666.2;923.33;13.886
439.65;-2.0958;6794.4;939.38;13.852
439.93;-0.2000;6716.5;931.10;13.865
440.21;-3.9000;6745.0;932.00;13.868
440.50;-5.5292;6893.4;947.93;13.820
440.78;-4.0542;7129.0;979.24;13.785
441.06;-4.4083;7418.4;1017.5;13.767
441.34;-3.0167;7530.8;1034.7;13.774
441.62;0.6292;7600.4;1044.8;13.740
441.90;-1.4125;7600.0;1038.7;13.683
442.19;2.1042;7527.8;1030.1;13.660
442.47;6.3042;7533.3;1032.1;13.629
442.75;2.5125;7563.5;1030.8;13.601
443.03;4.2292;7540.8;1023.2;13.521
443.31;1.6792;7460.7;1005.6;13.460
443.59;1.0500;7509.3;1009.1;13.426
443.88;4.4292;7584.5;1018.9;13.383
444.16;1.3333;7469.2;998.42;13.352
444.44;1.4333;7309.6;974.47;13.314
444.72;1.9458;7158.8;953.19;13.291
445.00;1.6375;7060.9;937.23;13.253
445.28;4.5417;7061.2;936.25;13.203
445.57;4.3333;6950.0;919.82;13.181
445.85;2.4250;6962.2;917.17;13.143
446.13;2.3250;7136.4;938.11;13.117
446.41;2.4625;7131.6;936.06;13.095
446.69;0.09583;7083.5;925.08;13.058
446.97;-2.8208;6950.5;908.36;13.104
447.25;-5.8917;6749.4;883.02;13.159
447.54;-9.7250;6703.6;872.33;13.139
447.82;-8.6250;6582.9;854.80;13.099
448.10;-5.7250;6415.9;834.93;13.091
448.38;-5.8000;6380.7;829.56;13.080
448.66;-2.1375;6312.2;821.85;13.049
448.94;0.1417;6339.4;820.39;12.939
449.22;-0.2667;6362.6;816.43;12.835
449.50;9.3875;6233.7;807.56;12.823
449.78;9.1917;6139.9;792.59;12.778
450.07;4.3792;6130.7;781.50;12.685
450.35;3.1833;6119.9;774.98;12.618
450.63;-0.8375;6148.1;776.02;12.634
450.91;4.1417;6151.3;778.13;12.591
451.19;3.6542;6159.9;774.31;12.518
451.47;-1.3167;6244.1;781.16;12.529
451.75;-2.5500;6234.7;778.60;12.524
452.03;-1.0083;6174.9;774.37;12.555
452.31;3.8042;6087.9;767.27;12.548
452.60;2.1708;6004.8;752.91;12.507
452.88;0.1458;5913.4;742.08;12.547
453.16;-1.6458;5778.2;726.10;12.591
453.44;-3.7833;5640.0;706.59;12.587
453.72;-3.3250;5508.5;690.70;12.592
454.00;-4.9750;5431.5;683.89;12.671
454.28;-2.2958;5414.6;685.14;12.690
454.56;-2.4458;5416.9;686.85;12.719
454.84;-2.7750;5382.3;682.73;12.730
455.12;0.9667;5435.7;693.30;12.739
455.40;0.6542;5454.5;697.50;12.777
455.68;0.4500;5499.8;703.15;12.778
455.96;2.3958;5571.3;716.79;12.828
456.24;2.6417;5510.0;709.25;12.830
456.53;4.9625;5515.0;713.63;12.861
456.81;3.7250;5540.8;716.23;12.868
457.09;-0.6833;5634.7;722.09;12.826
457.37;4.9458;5728.7;739.98;12.842
457.65;5.2375;5780.5;747.18;12.847
457.93;4.7000;5779.7;744.40;12.809
458.21;4.5250;5816.0;751.03;12.845
458.49;4.4625;5903.3;765.25;12.897
458.77;9.4417;5921.0;775.00;12.950
459.05;8.5083;5970.0;788.33;13.081
459.33;8.7917;5982.0;793.57;13.138
459.61;5.9792;6023.7;799.06;13.179
459.89;0.8458;6028.5;795.85;13.189
460.17;-1.4667;6051.8;797.54;13.200
460.45;-2.9000;6072.0;801.37;13.239
460.73;-4.6625;6029.9;796.50;13.276
461.01;-7.2125;5911.3;781.31;13.323
461.29;-7.4667;5712.5;756.92;13.363
461.57;-3.0208;5656.4;756.60;13.422
461.85;0.02083;5598.1;755.01;13.486
462.13;-1.6042;5525.6;745.96;13.525
462.41;-1.9292;5347.7;723.80;13.566
462.69;0.8333;5164.6;703.63;13.610
462.97;4.2792;5172.1;707.29;13.604
463.25;5.5833;5193.9;713.10;13.637
463.53;1.2333;5099.5;699.50;13.696
463.81;0.1750;5094.2;702.07;13.779
464.09;2.5208;5248.9;730.22;13.870
464.37;-2.8208;5393.9;749.81;13.946
464.65;0.7417;5622.1;787.98;14.004
464.93;-3.0625;5731.0;805.85;14.107
465.21;-4.7250;5843.5;821.82;14.133
465.49;1.5708;6032.4;855.83;14.165
465.77;-1.6333;5940.5;843.90;14.229
466.05;5.5792;5765.3;824.30;14.215
466.33;2.4667;5636.7;805.41;14.251
466.61;-1.7500;5436.0;772.46;14.238
466.89;0.3958;5277.6;752.56;14.253
467.17;1.7292;5141.6;736.02;14.286
467.45;4.3333;5000.5;715.72;14.239
467.73;0.2708;4957.5;709.12;14.299
468.01;3.1583;4909.4;708.65;14.380
468.29;7.5792;4858.2;705.11;14.380
468.57;10.058;4811.2;704.64;14.467
468.85;7.9625;4713.2;688.66;14.467
469.13;5.6625;4625.4;677.17;14.536
469.41;5.4625;4525.4;667.05;14.637
469.69;3.7083;4435.3;646.50;14.505
469.97;2.1292;4371.2;637.78;14.549
470.25;-2.9042;4303.4;625.61;14.595
470.53;-2.0750;4261.2;617.23;14.526
470.81;-2.5583;4232.6;617.07;14.631
471.09;-6.0167;4218.4;611.36;14.614
471.36;-4.2333;4216.2;612.59;14.615
471.64;-1.9667;4221.0;620.54;14.741
471.92;-0.07083;4251.1;623.36;14.665
472.20;0.01250;4272.0;627.24;14.682
472.48;-0.1500;4322.2;636.77;14.735
472.76;3.7542;4373.2;642.59;14.620
473.04;6.7792;4396.3;650.32;14.661
473.32;7.4000;4430.7;658.14;14.711
473.60;3.8458;4417.5;652.03;14.686
473.88;0.7875;4434.4;653.42;14.720
474.16;1.8833;4483.9;657.96;14.638
474.44;-1.1208;4508.9;657.61;14.606
474.72;-2.3292;4555.2;661.76;14.571
474.99;-4.4208;4571.4;657.09;14.457
475.27;-5.0167;4574.1;652.19;14.352
475.55;-4.2625;4585.0;655.82;14.383
475.83;-5.8042;4550.6;651.91;14.435
476.11;-3.2875;4492.3;641.97;14.353
476.39;0.02500;4403.4;636.33;14.450
476.67;-0.4708;4306.6;621.11;14.432
476.95;-2.2542;4274.8;615.72;14.449
477.23;-2.3750;4277.6;616.93;14.470
477.50;-1.5583;4296.1;611.57;14.266
477.78;1.4000;4302.3;614.37;14.252
478.06;-0.2833;4300.9;609.08;14.167
478.34;-1.6875;4319.8;605.80;14.057
478.62;-1.6625;4317.2;601.35;13.962
478.90;-1.3833;4327.9;600.57;13.904
479.18;0.4542;4343.3;605.90;13.941
479.46;-4.5208;4341.0;603.23;13.986
479.73;-4.4000;4372.8;609.89;14.034
480.01;-5.5625;4383.7;608.87;13.998
480.29;-7.4208;4382.6;608.65;14.033
480.57;-1.6333;4411.9;618.52;14.051
480.85;-1.0042;4415.0;617.82;14.013
481.13;-1.2667;4415.5;614.42;13.940
481.41;-0.8167;4393.7;608.47;13.865
481.68;0.3917;4325.8;594.48;13.735
481.96;2.4833;4269.6;586.28;13.681
482.24;2.5667;4216.8;580.33;13.710
482.52;-1.4333;4142.8;564.14;13.647
482.80;-1.2375;4043.3;550.49;13.641
483.08;1.3083;3961.2;540.45;13.615
483.36;0.6292;3931.9;536.42;13.629
483.63;-1.1417;3957.2;540.16;13.675
483.91;0.04167;4031.6;551.01;13.666
484.19;3.0125;4097.2;559.89;13.602
484.47;0.8458;4357.5;592.79;13.587
484.75;0.1292;5634.8;773.96;13.733
485.03;1.9625;7222.9;1002.4;13.855
485.30;6.3792;8554.1;1199.5;13.959
485.58;6.6708;9911.8;1393.8;14.004
485.86;6.1167;10081;1421.1;14.045
486.14;7.1250;10082;1425.5;14.078
486.42;5.1792;9810.4;1386.6;14.089
486.69;7.2583;8347.6;1183.5;14.103
486.97;2.4208;6951.3;978.53;14.047
487.25;0.5167;5313.4;744.96;14.012
487.53;1.4167;4073.2;569.23;13.945
487.81;1.8208;3782.5;526.38;13.875
488.08;10.208;3646.8;515.37;13.891
488.36;7.4542;3496.6;495.17;13.978
488.64;6.8417;3348.9;472.97;13.947
488.92;6.8875;3258.4;459.78;13.929
489.20;5.7458;3205.9;454.39;14.019
489.47;6.0333;3160.9;448.20;14.015
489.75;-3.6083;3106.6;437.31;14.177
490.03;-6.5875;3064.2;430.19;14.224
490.31;-5.2583;3023.7;427.68;14.293
490.58;-2.4083;2986.8;428.91;14.429
490.86;1.5375;2971.1;429.71;14.419
491.14;-0.5833;2938.4;424.36;14.459
491.42;-0.4750;2922.4;421.21;14.427
491.70;0.1000;2917.0;421.16;14.435
491.97;0.3625;2879.6;416.81;14.464
492.25;2.3917;2858.5;416.63;14.504
492.53;-1.7542;2836.5;414.03;14.649
492.81;0.2625;2814.5;415.08;14.740
493.08;6.3000;2820.8;421.50;14.752
493.36;5.4292;2815.1;423.41;14.876
493.64;6.9167;2805.9;424.27;14.911
493.92;5.8917;2799.5;422.14;14.900
494.19;2.9833;2779.1;420.31;15.033
494.47;2.5542;2736.2;411.00;14.941
494.75;-0.7833;2695.1;404.95;15.050
495.03;-3.6000;2681.8;406.22;15.261
495.30;-3.0042;2688.2;410.14;15.352
495.58;-3.2458;2723.0;420.45;15.541
495.86;0.1208;2755.0;426.88;15.491
496.13;3.2958;2752.0;428.36;15.464
496.41;4.2958;2747.5;429.40;15.496
496.69;4.0208;2708.3;422.17;15.462
496.97;0.1542;2624.0;406.84;15.500
497.24;3.7500;2539.0;396.54;15.493
497.52;1.2500;2427.2;379.51;15.592
497.80;-5.6625;2343.5;363.37;15.709
498.07;-3.1917;2310.1;362.82;15.822
498.35;-4.2917;2300.9;362.63;15.918
498.63;3.5083;2347.5;376.55;15.915
498.91;7.1500;2384.8;386.12;15.938
499.18;3.2875;2408.1;388.32;16.011
499.46;10.096;2426.0;399.92;16.135
499.74;9.9750;2413.0;400.17;16.238
500.01;9.8375;2406.4;401.38;16.338
500.29;7.9250;2402.7;398.23;16.298
500.57;3.8375;2401.4;398.08;16.443
500.84;4.7458;2385.7;396.59;16.457
501.12;4.4125;2388.7;395.43;16.400
501.40;2.4000;2395.6;398.39;16.546
501.67;2.8833;2403.4;398.28;16.471
501.95;5.0583;2430.2;404.93;16.489
502.23;3.0458;2415.8;404.35;16.633
502.51;3.2750;2409.9;403.87;16.645
502.78;3.4458;2400.6;405.94;16.790
503.06;3.6833;2370.8;402.07;16.830
503.34;6.6500;2349.5;396.75;16.651
503.61;7.2500;2307.1;392.24;16.740
503.89;6.7708;2263.4;385.01;16.761
504.16;7.8208;2229.0;380.58;16.782
504.44;9.5833;2191.6;378.18;16.893
504.72;10.467;2160.2;374.84;16.949
504.99;7.6750;2127.2;371.80;17.180
505.27;2.8167;2120.6;372.11;17.438
505.55;1.9083;2135.4;372.44;17.367
505.82;5.2417;2134.8;374.95;17.361
506.10;3.3458;2122.8;372.30;17.408
506.38;2.8125;2089.1;359.99;17.120
506.65;5.5000;2067.0;357.08;17.055
506.93;5.8333;2050.4;350.03;16.835
507.21;7.0292;2021.4;345.73;16.814
507.48;3.1042;2009.0;349.05;17.247
507.76;1.2417;1991.3;345.58;17.303
508.03;0.4833;1974.5;345.21;17.463
508.31;-2.2167;1973.0;347.97;17.729
508.59;-4.1000;1962.1;345.39;17.775
508.86;-1.5625;1942.8;343.96;17.771
509.14;3.2000;1924.2;343.04;17.691
509.41;5.0500;1899.8;339.65;17.659
509.69;4.7708;1877.3;338.12;17.802
509.97;1.5958;1864.8;334.32;17.858
510.24;3.4083;1858.4;333.05;17.770
510.52;1.1250;1849.5;329.08;17.742
510.80;-2.9875;1837.7;327.99;17.981
511.07;-2.5208;1818.9;324.30;17.943
511.35;-4.4708;1784.4;311.23;17.648
511.62;-2.8917;1757.5;304.55;17.464
511.90;1.1375;1736.2;302.22;17.353
512.17;0.4333;1710.2;301.31;17.597
512.45;1.3625;1700.1;300.50;17.609
512.73;3.7375;1695.6;303.61;17.724
513.00;1.0792;1685.7;302.95;17.920
513.28;4.3750;1681.0;308.24;18.124
513.55;9.0208;1680.6;313.76;18.230
513.83;7.7333;1673.5;307.52;17.997
514.10;9.4833;1650.6;306.87;18.120
514.38;11.692;1621.0;297.57;17.764
514.66;14.483;1599.7;290.70;17.425
514.93;12.325;1582.9;285.81;17.413
515.21;8.0708;1576.9;278.76;17.254
515.48;8.3333;1580.3;280.46;17.311
515.76;10.988;1587.2;283.78;17.307
516.03;14.458;1601.7;291.04;17.425
516.31;10.512;1607.9;293.58;17.721
516.58;9.9500;1604.4;292.01;17.690
516.86;11.946;1595.2;289.43;17.526
517.14;9.5542;1571.0;284.89;17.633
517.41;4.9417;1529.9;277.32;17.861
517.69;1.2083;1504.1;271.50;17.986
517.96;2.1333;1497.6;269.55;17.882
518.24;-0.5708;1494.0;268.14;17.980
518.51;-3.7000;1498.2;271.18;18.302
518.79;-1.3208;1505.5;274.12;18.280
519.06;2.4500;1514.0;275.70;18.078
519.34;6.9500;1512.0;276.13;17.885
519.61;4.7333;1488.5;268.87;17.802
519.89;1.6042;1457.1;262.62;17.934
520.16;2.8167;1430.4;257.53;17.842
520.44;1.6042;1407.1;250.39;17.701
520.71;0.3583;1386.0;248.13;17.881
520.99;-5.2875;1368.1;242.59;18.048
521.26;-8.9792;1359.2;239.78;18.182
521.54;-10.779;1358.9;239.23;18.253
521.81;-10.354;1360.5;237.33;18.068
522.09;-5.9250;1362.8;241.83;18.101
522.36;-4.2292;1362.5;242.20;18.030
522.64;-1.8417;1364.9;243.44;17.946
522.91;-0.6458;1376.4;248.65;18.104
523.19;2.0083;1390.4;252.54;18.045
523.46;4.8833;1406.3;257.96;18.058
523.74;5.2500;1413.0;260.65;18.143
524.01;6.1417;1409.0;261.22;18.183
524.29;5.5208;1404.4;261.22;18.279
524.56;4.8208;1395.8;258.52;18.239
524.84;7.2625;1388.9;258.09;18.154
525.11;6.9750;1378.6;256.05;18.160
525.39;3.9750;1364.7;248.37;17.961
525.66;3.8542;1364.9;247.92;17.932
525.94;2.9708;1370.0;248.13;17.933
526.21;6.7125;1378.4;250.70;17.787
526.48;9.8917;1385.5;253.48;17.708
526.76;8.0250;1383.8;249.49;17.551
527.03;11.850;1386.4;253.58;17.586
527.31;13.821;1385.8;256.95;17.720
527.58;12.700;1397.0;256.65;17.623
527.86;9.6292;1413.6;257.16;17.630
528.13;6.8958;1437.7;261.13;17.768
528.41;5.2375;1468.3;267.40;17.919
528.68;1.7958;1481.1;269.65;18.107
528.95;2.6000;1500.4;273.19;18.066
529.23;-1.0542;1504.4;269.29;17.958
529.50;0.2667;1498.9;268.93;17.927
529.78;0.4333;1489.1;265.45;17.802
530.05;-7.0542;1458.1;252.57;17.721
530.33;-2.2792;1444.0;253.55;17.689
530.60;-1.5417;1443.3;252.67;17.595
530.87;-4.5125;1447.4;253.35;17.760
531.15;-1.4750;1455.7;257.45;17.769
531.42;1.5375;1463.0;262.27;17.841
531.70;11.496;1477.1;272.39;17.801
531.97;16.746;1500.2;278.90;17.671
532.24;12.917;1526.1;281.74;17.765
532.52;11.813;1558.4;283.83;17.588
532.79;15.021;1599.3;294.57;17.646
533.07;15.858;1634.3;299.92;17.552
533.34;10.142;1663.3;302.35;17.676
533.61;3.2375;1688.4;306.03;17.968
533.89;0.1083;1708.5;306.01;17.906
534.16;3.8458;1723.4;310.90;17.857
534.44;2.2000;1722.1;306.08;17.668
534.71;2.0917;1718.0;304.77;17.640
534.98;4.0333;1716.0;304.63;17.558
535.26;1.4083;1705.5;297.08;17.350
535.53;1.6875;1691.1;294.78;17.349
535.80;-1.8542;1665.1;287.61;17.365
536.08;-2.4083;1639.1;284.00;17.448
536.35;-5.1958;1617.6;280.21;17.587
536.63;-8.1708;1602.5;275.35;17.603
536.90;-6.1042;1602.1;277.33;17.624
537.17;-6.5167;1613.8;279.29;17.640
537.45;-3.1417;1636.1;284.47;17.545
537.72;-1.7958;1662.5;291.02;17.594
537.99;0.6417;1692.6;298.84;17.625
538.27;3.0042;1717.3;304.50;17.587
538.54;-0.5000;1734.7;305.77;17.651
538.81;0.5625;1744.5;308.01;17.629
539.09;1.4333;1738.9;306.25;17.544
539.36;10.679;1734.7;312.28;17.494
539.63;13.646;1728.7;311.94;17.392
539.91;8.3833;1717.7;303.55;17.268
540.18;13.458;1716.4;306.69;17.220
540.45;11.154;1714.1;304.50;17.226
540.73;13.554;1714.0;309.99;17.433
541.00;13.088;1721.7;314.23;17.625
541.27;6.3208;1724.3;306.33;17.463
541.55;10.300;1736.6;313.63;17.571
541.82;14.162;1752.4;320.47;17.622
542.09;17.558;1750.9;320.45;17.474
542.37;19.208;1749.4;318.55;17.301
542.64;19.087;1754.4;311.03;16.824
542.91;15.429;1759.3;311.85;16.999
543.19;9.7917;1764.4;310.63;17.146
543.46;6.0958;1768.8;306.06;17.017
543.73;3.6417;1777.4;307.67;17.140
544.00;3.0500;1794.9;311.45;17.211
544.28;-0.9958;1806.1;315.95;17.539
544.55;5.7625;1809.7;323.68;17.624
544.82;11.758;1808.5;325.21;17.446
545.10;11.292;1793.1;321.44;17.406
545.37;13.279;1768.7;318.55;17.390
545.64;9.5208;1748.8;311.18;17.344
545.91;12.113;1732.8;310.65;17.350
546.19;8.4917;1726.6;306.91;17.369
546.46;3.8625;1737.4;304.24;17.327
546.73;5.5000;1766.3;310.80;17.339
547.00;6.5167;1819.2;322.05;17.407
547.28;11.967;1873.6;337.39;17.480
547.55;11.625;1914.6;344.29;17.481
547.82;12.092;1941.1;347.02;17.362
548.10;11.421;1940.5;343.81;17.230
548.37;5.8917;1914.6;336.24;17.307
548.64;6.7625;1887.9;332.53;17.317
548.91;4.3500;1841.0;321.60;17.273
549.19;3.2833;1794.3;312.27;17.252
549.46;6.9792;1771.9;312.03;17.284
549.73;6.1417;1742.9;308.67;17.419
550.00;13.000;1739.9;310.79;17.244
550.27;14.479;1738.8;310.19;17.150
550.55;17.712;1737.8;312.37;17.130
550.82;23.750;1769.1;321.00;17.031
551.09;20.258;1799.2;323.19;17.029
551.36;19.275;1830.9;324.09;16.826
551.64;13.683;1875.4;330.85;17.036
551.91;10.929;1908.3;339.75;17.330
552.18;7.4833;1931.0;340.08;17.292
552.45;1.6667;1953.9;339.60;17.310
552.72;-1.0458;1951.5;335.37;17.229
553.00;-2.8542;1938.7;333.33;17.315
553.27;3.9708;1924.7;336.30;17.302
553.54;7.6542;1894.0;330.68;17.124
553.81;5.8583;1882.8;327.66;17.145
554.08;6.4000;1886.5;329.01;17.159
554.36;5.8458;1888.2;331.73;17.312
554.63;5.8250;1907.8;338.22;17.476
554.90;1.5375;1930.1;339.87;17.543
555.17;0.4667;1960.3;342.94;17.474
555.44;4.3583;1998.8;349.18;17.289
555.72;3.9417;2014.0;351.57;17.294
555.99;1.6875;2022.0;349.88;17.235
556.26;0.5542;2024.9;347.26;17.127
556.53;1.5625;2013.4;344.32;17.038
556.80;5.9833;2013.2;348.11;17.045
557.07;3.4042;2001.8;349.43;17.315
557.35;-1.2625;1991.3;345.94;17.424
557.62;5.6292;2000.1;350.43;17.288
557.89;7.1875;1993.0;349.78;17.253
558.16;6.4250;1991.2;349.41;17.280
558.43;6.7042;1997.6;348.73;17.180
558.70;3.0500;1999.7;342.60;17.006
558.98;4.5167;2023.9;345.60;16.890
559.25;2.7583;2053.6;350.01;16.933
559.52;-0.5958;2094.2;356.02;17.024
559.79;5.5375;2161.2;373.84;17.085
560.06;5.7000;2215.3;384.59;17.147
560.33;4.3250;2258.3;392.25;17.211
560.60;5.5167;2291.8;397.96;17.165
560.88;2.6000;2303.3;395.32;17.070
561.15;4.3958;2311.2;398.92;17.103
561.42;1.0500;2300.0;393.47;17.070
561.69;0.5792;2284.2;389.13;17.015
561.96;2.1958;2278.9;388.78;16.980
562.23;-3.2875;2267.1;384.92;17.099
562.50;-3.3500;2275.4;385.53;17.066
562.77;-3.7000;2289.6;384.68;16.935
563.05;1.6250;2311.6;392.61;16.926
563.32;6.7875;2343.5;398.87;16.779
563.59;4.1875;2364.7;399.44;16.745
563.86;6.1458;2394.1;402.92;16.616
564.13;11.004;2425.1;411.58;16.593
564.40;13.921;2435.5;420.51;16.790
564.67;17.058;2446.2;425.12;16.798
564.94;14.708;2461.2;426.40;16.828
565.21;9.6042;2460.5;423.78;16.899
565.48;9.8833;2467.5;425.52;16.912
565.76;8.8000;2474.5;426.14;16.926
566.03;7.6208;2481.0;423.92;16.832
566.30;4.5958;2518.3;425.97;16.763
566.57;5.2583;2559.3;435.29;16.837
566.84;6.7750;2592.6;444.81;16.940
567.11;3.0083;2637.3;453.11;17.086
567.38;5.6250;2687.0;465.43;17.148
567.65;2.7958;2741.2;471.73;17.125
567.92;-1.3625;2797.0;479.91;17.198
568.19;2.9167;2854.4;493.78;17.214
568.46;2.4500;2928.0;504.84;17.173
568.73;5.8167;3016.1;521.30;17.124
569.00;12.588;3124.6;546.60;17.160
569.27;10.688;3224.1;564.58;17.237
569.54;11.537;3307.3;580.64;17.268
569.82;16.692;3401.6;604.75;17.373
570.09;11.571;3468.8;615.95;17.482
570.36;7.6000;3527.9;626.25;17.574
570.63;6.9208;3582.8;634.86;17.560
570.90;4.3542;3628.9;637.63;17.472
571.17;4.2542;3659.5;643.13;17.478
571.44;3.0250;3666.6;644.51;17.510
571.71;1.9708;3644.1;641.21;17.551
571.98;3.2083;3605.8;635.17;17.542
572.25;2.7708;3597.9;635.00;17.586
572.52;2.9000;3592.9;636.20;17.641
572.79;1.1750;3614.9;638.88;17.647
573.06;0.9208;3673.0;649.76;17.670
573.33;2.4958;3749.3;663.57;17.644
573.60;1.3958;3845.5;679.45;17.639
573.87;3.9167;3955.0;697.64;17.558
574.14;4.2042;4031.8;710.33;17.532
574.41;5.1292;4035.2;711.88;17.537
574.68;4.3417;3997.1;706.12;17.576
574.95;5.4625;3917.2;694.79;17.622
575.22;7.3000;3841.8;678.40;17.502
575.49;4.0125;3789.8;666.05;17.487
575.76;2.0292;3748.6;658.51;17.522
576.03;-2.5792;3746.6;654.40;17.523
576.30;-1.9000;3771.2;661.17;17.574
576.57;3.5250;3881.8;685.71;17.590
576.84;5.2833;4038.4;714.17;17.576
577.11;5.2208;4196.8;746.97;17.696
577.38;4.0833;4323.7;773.74;17.818
577.65;5.5583;4354.1;778.40;17.772
577.92;6.5917;4331.9;774.30;17.750
578.19;2.2875;4248.1;751.28;17.641
578.46;-3.5000;4136.8;723.22;17.553
578.73;-6.6583;3993.1;695.83;17.563
578.99;-3.4125;3855.6;668.33;17.407
579.26;1.1542;3777.1;652.17;17.241
579.53;0.1208;3726.3;642.90;17.250
579.80;1.0000;3746.7;648.98;17.299
580.07;2.2333;3821.5;663.52;17.314
580.34;2.7875;3966.2;690.91;17.362
580.61;2.0458;4135.4;721.75;17.412
580.88;-4.1542;4298.2;749.04;17.506
581.15;-4.9792;4469.7;782.20;17.592
581.42;-4.1083;4539.9;796.87;17.627
581.69;-2.7750;4587.4;806.65;17.634
581.96;-0.4000;4552.5;802.86;17.643
582.23;0.5542;4382.2;770.39;17.570
582.50;3.3125;4196.9;735.75;17.465
582.77;5.4042;3938.7;688.89;17.377
583.03;5.5417;3710.2;645.60;17.277
583.30;8.2250;3589.1;621.46;17.125
583.57;10.254;3506.8;604.31;16.990
583.84;8.7208;3498.4;602.70;17.021
584.11;15.929;3557.7;619.48;17.041
584.38;18.154;3643.3;639.01;17.126
584.65;15.587;3755.6;657.94;17.175
584.92;17.063;3826.7;672.73;17.211
585.19;14.433;3854.5;677.44;17.266
585.46;15.633;3845.5;675.80;17.237
585.72;13.879;3770.9;660.96;17.223
585.99;6.7125;3708.9;643.42;17.198
586.26;6.8167;3649.7;630.78;17.128
586.53;7.6042;3594.8;620.75;17.093
586.80;8.6333;3577.4;618.58;17.091
587.07;6.7375;3548.3;612.39;17.101
587.34;2.3333;3539.1;608.42;17.136
587.61;3.5875;3535.5;607.09;17.087
587.88;3.0958;3497.4;599.45;17.066
588.14;2.6750;3440.1;588.17;17.033
588.41;1.6000;3359.6;569.98;16.926
588.68;2.5833;3291.7;555.33;16.805
588.95;3.2583;3249.9;549.63;16.829
589.22;2.8042;3219.7;545.25;16.862
589.49;5.1083;3192.8;539.81;16.774
589.75;6.0417;3176.5;539.14;16.814
590.02;8.1250;3155.8;534.85;16.734
590.29;7.0917;3132.6;528.12;16.670
590.56;3.2500;3117.6;522.71;16.680
590.83;5.3250;3099.2;516.23;16.514
591.10;6.9500;3079.2;514.30;16.514
591.37;5.3875;3065.3;512.53;16.574
591.63;2.8500;3078.2;511.75;16.548
591.90;-1.4250;3108.0;517.59;16.692
592.17;0.4000;3163.3;530.20;16.751
592.44;0.6458;3217.2;540.76;16.792
592.71;-0.7042;3246.0;546.57;16.856
592.97;-3.1500;3272.6;548.79;16.849
593.24;-5.8417;3271.6;547.40;16.880
593.51;2.6042;3257.8;553.01;16.908
593.78;4.9042;3226.2;549.16;16.896
594.05;1.3917;3172.5;537.42;16.903
594.31;5.7875;3138.8;538.05;16.989
594.58;5.4833;3113.2;530.70;16.901
594.85;8.8000;3100.6;530.17;16.863
595.12;9.8417;3089.1;528.38;16.840
595.39;3.7292;3069.0;515.09;16.683
595.65;10.488;3060.8;516.98;16.605
595.92;10.742;3041.8;511.23;16.512
596.19;5.1042;3018.8;502.78;16.514
596.46;7.7167;3006.2;504.02;16.552
596.73;6.5500;2994.5;504.09;16.652
596.99;6.1583;2988.6;504.63;16.714
597.26;2.9375;2986.2;503.87;16.791
597.53;-0.7250;2990.2;507.96;17.008
597.80;6.6000;3009.7;515.20;16.936
598.06;7.4458;3031.5;518.67;16.905
598.33;5.5333;3042.2;520.82;16.969
598.60;4.6458;3048.2;518.80;16.893
598.87;4.2000;3058.9;520.08;16.888
599.13;7.0083;3070.6;524.19;16.882
599.40;3.8583;3072.6;520.28;16.828
599.67;-0.1958;3061.6;517.56;16.910
599.94;0.9583;3044.8;518.45;17.001
600.20;3.6333;3030.4;514.80;16.888
600.47;6.3250;3022.3;513.53;16.818
600.74;8.1208;3011.8;511.63;16.763
601.01;8.7875;2999.9;508.64;16.711
601.27;10.425;2991.0;508.63;16.715
601.54;9.3792;2980.8;500.32;16.522
601.81;7.8208;2976.5;495.44;16.425
602.08;3.8292;2972.5;497.03;16.613
602.34;2.8417;2969.5;500.38;16.771
602.61;5.0833;2974.1;503.02;16.771
602.88;6.0417;2975.2;501.90;16.700
603.14;10.404;2977.3;505.69;16.694
603.41;11.196;2973.4;506.53;16.722
603.68;13.708;2961.6;506.73;16.724
603.94;17.729;2953.3;502.95;16.529
604.21;12.408;2939.1;492.98;16.420
604.48;11.675;2931.5;492.29;16.460
604.75;9.6750;2927.9;490.40;16.473
605.01;5.0250;2924.9;490.35;16.621
605.28;5.6667;2926.6;492.13;16.654
605.55;3.2542;2933.8;491.58;16.664
605.81;2.9500;2939.6;491.57;16.639
606.08;4.1458;2933.0;490.22;16.596
606.35;3.3792;2932.1;489.60;16.602
606.61;3.4458;2923.8;483.57;16.441
606.88;9.3917;2920.5;484.99;16.337
607.15;10.504;2913.4;484.60;16.332
607.41;7.7667;2895.7;481.01;16.387
607.68;12.979;2899.4;487.06;16.425
607.95;12.963;2893.7;488.41;16.504
608.21;11.200;2880.4;488.13;16.622
608.48;8.9667;2866.8;487.03;16.728
608.75;2.6083;2854.1;480.70;16.766
609.01;4.6708;2856.8;479.49;16.648
609.28;4.2708;2857.8;478.01;16.602
609.55;0.1833;2852.7;475.17;16.651
609.81;3.8417;2854.1;476.95;16.599
610.08;7.9208;2859.9;477.77;16.475
610.35;7.0875;2864.1;477.83;16.477
610.61;6.9625;2860.8;479.22;16.548
610.88;5.9958;2853.0;481.02;16.685
611.14;7.8000;2848.3;483.53;16.748
611.41;11.308;2839.5;484.17;16.720
611.68;9.7583;2833.5;482.46;16.740
611.94;12.325;2828.6;486.03;16.820
612.21;13.962;2821.5;484.76;16.769
612.47;10.308;2817.3;481.08;16.771
612.74;6.5625;2811.8;476.89;16.766
613.01;5.9292;2808.7;475.71;16.761
613.27;1.7750;2808.0;474.42;16.843
613.54;-1.1333;2810.7;468.46;16.701
613.81;2.0083;2818.0;472.16;16.696
614.07;3.9583;2823.1;472.74;16.628
614.34;9.8875;2827.8;477.27;16.586
614.60;14.163;2826.1;479.54;16.550
614.87;17.371;2826.1;477.69;16.389
615.13;22.121;2829.0;484.90;16.487
615.40;21.529;2821.0;484.43;16.536
615.67;17.542;2803.5;481.60;16.657
615.93;15.875;2792.4;479.41;16.695
616.20;14.246;2787.8;475.14;16.617
616.46;9.2417;2777.9;473.22;16.758
616.73;5.8167;2768.5;468.29;16.740
616.99;6.5333;2762.2;465.79;16.666
617.26;6.3833;2758.3;463.88;16.625
617.53;4.4333;2755.0;458.75;16.517
617.79;6.3875;2750.1;459.55;16.516
618.06;5.1458;2742.7;459.35;16.592
618.32;7.9833;2746.6;460.41;16.520
618.59;7.2917;2741.0;457.04;16.452
618.85;1.0708;2727.5;450.62;16.489
619.12;2.2083;2727.2;451.10;16.473
619.38;0.4125;2723.2;450.47;16.530
619.65;1.7625;2722.8;450.55;16.493
619.92;3.4292;2720.0;448.55;16.385
620.18;2.7583;2709.5;450.10;16.527
620.45;3.3917;2704.4;453.01;16.647
620.71;2.9542;2700.2;449.85;16.568
620.98;4.1250;2696.5;450.52;16.580
621.24;4.2208;2696.1;453.15;16.677
621.51;2.4042;2690.7;453.34;16.774
621.77;0.6667;2682.8;452.64;16.851
622.04;1.3083;2686.8;450.54;16.728
622.30;6.2042;2691.6;454.22;16.683
622.57;8.2000;2689.9;458.36;16.787
622.83;8.7500;2692.3;456.97;16.702
623.10;8.4708;2687.8;454.40;16.643
623.36;6.4750;2685.4;452.78;16.660
623.63;6.2625;2688.1;453.86;16.690
623.89;3.7292;2681.9;452.13;16.743
624.16;0.8542;2681.3;450.25;16.766
624.42;1.1875;2678.4;450.57;16.785
624.69;2.1375;2669.9;452.81;16.894
624.95;5.8917;2668.9;456.77;16.931
625.22;11.154;2671.6;459.71;16.860
625.48;13.571;2671.8;462.33;16.882
625.75;15.225;2669.0;462.22;16.844
626.01;12.258;2662.4;457.80;16.812
626.28;11.171;2658.4;454.47;16.746
626.54;9.0292;2652.5;449.40;16.659
626.80;7.6167;2646.2;446.57;16.636
627.07;7.8708;2640.8;444.91;16.599
627.33;4.9583;2630.1;439.65;16.559
627.60;10.317;2629.6;442.61;16.505
627.86;13.162;2628.5;445.14;16.517
628.13;14.633;2629.6;446.38;16.510
628.39;14.087;2635.1;447.92;16.552
628.66;9.1917;2630.9;444.55;16.606
628.92;10.904;2630.2;445.47;16.591
629.18;7.6958;2628.5;444.89;16.681
629.45;6.1083;2632.4;443.98;16.672
629.71;4.4417;2632.3;446.93;16.838
629.98;-0.3583;2624.5;443.78;16.920
630.24;4.5958;2622.0;442.60;16.734
630.51;6.2458;2620.4;445.20;16.791
630.77;9.4500;2623.9;445.96;16.696
631.03;9.2625;2619.8;444.47;16.671
631.30;8.0417;2615.2;442.98;16.683
631.56;9.0792;2610.9;440.61;16.586
631.83;8.9833;2612.1;442.87;16.668
632.09;11.546;2613.3;446.22;16.707
632.35;7.8083;2608.8;443.11;16.736
632.62;7.4958;2611.0;443.27;16.738
632.88;9.8833;2610.7;444.20;16.699
633.15;11.504;2611.6;443.51;16.615
633.41;13.925;2615.1;445.83;16.604
633.67;13.750;2617.4;448.11;16.682
633.94;8.7125;2617.9;444.89;16.717
634.20;8.5208;2617.9;446.28;16.777
634.47;7.2333;2616.7;448.53;16.911
634.73;3.9667;2620.7;450.45;17.063
634.99;4.4250;2623.9;451.03;17.049
635.26;3.8917;2627.0;447.33;16.905
635.52;9.7708;2632.0;451.62;16.850
635.78;13.354;2638.3;455.81;16.856
636.05;15.179;2647.0;456.12;16.754
636.31;16.029;2653.4;454.99;16.644
636.58;17.242;2662.3;459.30;16.712
636.84;19.008;2661.4;464.70;16.867
637.10;18.312;2664.8;467.68;16.980
637.37;17.300;2668.3;466.67;16.951
637.63;14.329;2662.0;462.48;16.926
637.89;16.375;2670.4;466.02;16.942
638.16;17.938;2667.8;461.66;16.745
638.42;17.533;2663.7;456.13;16.575
638.68;19.417;2668.0;457.18;16.528
638.95;18.250;2661.8;455.56;16.543
639.21;15.267;2666.7;456.60;16.645
639.47;18.229;2672.8;461.71;16.706
639.74;15.817;2670.1;461.00;16.772
640.00;14.683;2674.8;464.44;16.907
640.26;15.221;2680.3;467.11;16.956
640.52;11.121;2679.6;462.90;16.930
640.79;15.938;2680.8;466.93;16.924
641.05;17.592;2677.9;465.54;16.838
641.31;15.938;2677.7;462.74;16.786
641.58;16.675;2678.0;464.84;16.840
641.84;16.504;2669.7;463.30;16.840
642.10;14.833;2667.1;463.68;16.923
642.37;10.688;2673.0;464.55;17.048
642.63;6.1958;2676.6;461.82;17.062
642.89;7.8875;2681.6;463.17;17.028
643.15;10.238;2685.6;464.99;16.997
643.42;8.8542;2685.5;463.53;16.987
643.68;9.6583;2695.0;465.00;16.956
643.94;14.233;2699.5;468.68;16.924
644.21;20.438;2700.4;473.63;16.911
644.47;17.654;2702.1;472.00;16.925
644.73;12.996;2697.5;469.12;16.991
644.99;13.271;2699.8;469.88;16.996
645.26;13.213;2700.9;468.41;16.936
645.52;10.858;2697.8;466.51;16.958
645.78;6.5542;2698.0;460.78;16.877
646.04;5.1667;2692.7;457.84;16.843
646.31;6.3542;2693.5;459.16;16.851
646.57;4.9667;2693.0;457.64;16.840
646.83;-0.1333;2687.3;454.01;16.899
647.09;0.6375;2688.2;457.58;17.002
647.36;4.5708;2685.3;463.55;17.121
647.62;6.6292;2691.4;466.28;17.120
647.88;11.879;2697.5;470.04;17.060
648.14;14.000;2699.1;468.60;16.931
648.41;12.667;2699.5;468.60;16.969
648.67;15.804;2701.8;471.42;16.963
648.93;16.404;2707.6;469.90;16.851
649.19;11.779;2702.2;464.42;16.824
649.45;10.137;2697.2;464.04;16.892
649.72;4.7833;2691.8;464.86;17.122
649.98;3.7083;2691.5;467.18;17.244
650.24;9.4292;2694.3;471.54;17.212
650.50;10.838;2689.9;470.52;17.158
650.76;9.4083;2690.8;471.86;17.247
651.03;12.387;2700.8;475.09;17.211
651.29;14.583;2703.6;471.73;17.000
651.55;16.596;2704.5;468.54;16.814
651.81;21.217;2706.0;471.50;16.772
652.07;18.325;2703.4;468.98;16.784
652.34;16.504;2703.5;468.08;16.806
652.60;15.542;2700.3;468.74;16.880
652.86;13.958;2693.8;464.18;16.800
653.12;15.021;2694.9;467.65;16.890
653.38;13.662;2697.4;467.74;16.920
653.64;10.608;2693.1;463.07;16.867
653.91;13.104;2697.4;468.64;16.971
654.17;15.904;2701.5;470.39;16.923
654.43;17.650;2704.7;472.50;16.927
654.69;16.933;2783.9;488.35;17.037
654.95;14.600;3088.4;545.93;17.286
655.21;14.858;3456.8;619.95;17.580
655.47;16.804;3793.9;687.05;17.745
655.74;16.121;4130.3;752.12;17.889
656.00;15.246;4232.8;770.39;17.905
656.26;17.092;4248.7;773.42;17.873
656.52;14.650;4140.1;750.58;17.839
656.78;17.858;3796.2;687.20;17.715
657.04;23.054;3457.9;627.03;17.584
657.30;18.417;3083.3;551.30;17.386
657.57;12.458;2785.1;486.92;17.112
657.83;12.246;2700.1;469.27;17.003
658.09;9.4458;2688.0;467.78;17.112
658.35;9.3917;2681.7;466.59;17.109
658.61;4.1042;2668.9;460.54;17.129
658.87;-2.0458;2659.1;452.15;17.068
659.13;2.9833;2662.6;456.74;17.061
659.39;4.0542;2659.1;462.71;17.275
659.65;4.5292;2649.0;461.10;17.265
659.92;4.9875;2644.5;460.31;17.250
660.18;5.1125;2644.6;459.64;17.221
660.44;5.4417;2651.9;461.71;17.241
660.70;9.6000;2662.5;466.55;17.224
660.96;12.483;2664.7;468.18;17.182
661.22;12.654;2670.8;466.58;17.077
661.48;17.267;2677.1;469.80;17.013
661.74;18.496;2683.0;474.28;17.106
662.00;20.913;2690.8;473.96;16.969
662.26;22.762;2696.5;477.62;17.012
662.52;19.117;2703.7;476.50;17.037
662.78;22.417;2712.3;482.06;17.088
663.04;27.367;2726.9;493.55;17.269
663.31;22.496;2733.1;489.63;17.234
663.57;21.092;2743.2;492.20;17.307
663.83;25.742;2758.8;500.63;17.376
664.09;27.946;2759.6;501.43;17.333
664.35;32.075;2770.3;508.41;17.396
664.61;28.183;2773.5;506.08;17.407
664.87;25.908;2784.2;505.08;17.372
665.13;31.496;2803.4;513.78;17.399
665.39;29.779;2806.4;512.55;17.387
665.65;27.625;2823.8;512.80;17.351
665.91;19.717;2828.7;508.38;17.396
666.17;14.254;2834.7;502.00;17.293
666.43;10.675;2838.0;497.18;17.207
666.69;5.1875;2833.0;490.57;17.164
666.95;3.9792;2844.5;488.74;17.066
667.21;0.6292;2844.1;488.65;17.163
667.47;-0.1292;2848.8;487.12;17.103
667.73;0.1583;2858.7;490.13;17.141
667.99;3.0333;2867.8;495.68;17.197
668.25;2.9333;2874.7;496.34;17.181
668.51;-2.4417;2871.0;497.13;17.385
668.77;-1.0167;2877.2;498.66;17.361
669.03;0.1417;2880.0;498.82;17.316
669.29;1.5333;2882.2;500.73;17.329
669.55;6.4958;2889.1;504.98;17.292
669.81;11.679;2895.4;509.72;17.270
670.07;19.075;2907.3;517.47;17.256
670.33;25.383;2915.9;522.41;17.195
670.59;26.129;2916.7;523.82;17.218
670.85;26.917;2922.3;527.45;17.287
671.11;29.592;2926.6;530.64;17.295
671.37;23.621;2915.3;527.33;17.419
671.63;20.333;2912.0;522.41;17.363
671.89;16.796;2907.7;518.37;17.350
672.15;17.867;2904.1;518.01;17.328
672.41;18.246;2904.5;518.35;17.327
672.67;11.192;2891.4;513.50;17.440
672.93;12.183;2893.5;512.69;17.371
673.18;7.1625;2890.1;507.71;17.362
673.44;6.5000;2876.9;507.05;17.439
673.70;8.2583;2873.9;510.57;17.528
673.96;9.6000;2862.1;509.52;17.526
674.22;15.208;2855.7;512.89;17.521
674.48;15.563;2849.5;510.17;17.453
674.74;17.508;2839.1;506.85;17.343
675.00;18.913;2837.2;506.33;17.295
675.26;18.875;2831.8;505.24;17.290
675.52;14.996;2821.0;502.05;17.357
675.78;7.5167;2815.3;492.97;17.289
676.04;5.5542;2810.5;492.84;17.372
676.30;10.096;2810.1;500.20;17.503
676.55;10.279;2806.1;502.10;17.591
676.81;8.2500;2796.9;498.01;17.563
677.07;11.971;2799.1;496.28;17.377
677.33;11.996;2796.0;496.78;17.413
677.59;13.967;2792.2;497.47;17.403
677.85;10.358;2785.1;493.40;17.408
678.11;7.4292;2782.2;488.78;17.347
678.37;11.787;2783.8;494.63;17.418
678.63;9.0000;2780.7;495.32;17.546
678.89;7.1000;2773.8;490.60;17.476
679.14;5.5042;2763.9;489.25;17.537
679.40;6.6458;2765.7;488.60;17.468
679.66;6.9292;2760.2;486.53;17.420
679.92;3.9333;2752.0;481.29;17.370
680.18;3.6042;2746.5;479.18;17.338
680.44;4.8708;2745.8;481.88;17.403
680.70;9.6542;2752.8;488.38;17.452
680.95;8.8292;2751.8;489.24;17.514
681.21;7.2000;2755.1;488.39;17.511
681.47;13.483;2760.0;498.07;17.644
681.73;15.533;2757.2;497.63;17.584
681.99;17.100;2755.5;496.76;17.516
682.25;16.229;2751.2;497.71;17.605
682.50;12.108;2746.6;491.22;17.521
682.76;13.317;2745.0;495.34;17.646
683.02;15.279;2742.7;497.15;17.667
683.28;13.342;2742.4;494.87;17.645
683.54;8.0875;2742.1;494.84;17.803
683.80;6.9375;2744.2;494.22;17.802
684.05;4.2458;2748.5;494.76;17.874
684.31;6.5917;2755.9;498.63;17.896
684.57;10.754;2764.2;499.76;17.760
684.83;6.5500;2767.2;496.09;17.733
685.09;7.4458;2768.8;497.45;17.745
685.34;9.8125;2774.7;501.64;17.788
685.60;10.150;2779.5;504.90;17.865
685.86;8.2250;2781.5;502.10;17.808
686.12;5.4250;2787.1;501.75;17.843
686.38;3.7292;2785.3;502.62;17.936
686.63;5.8500;2786.6;502.76;17.870
686.89;5.8333;2790.3;502.15;17.824
687.15;4.4917;2789.5;498.68;17.744
687.41;10.771;2797.6;505.88;17.766
687.67;15.292;2801.0;513.59;17.887
687.92;14.942;2797.7;513.34;17.910
688.18;16.979;2802.8;517.91;17.982
688.44;16.300;2805.4;521.15;18.101
688.70;16.642;2812.0;525.85;18.216
688.95;21.221;2819.0;530.11;18.189
689.21;16.354;2813.5;522.70;18.102
689.47;18.538;2818.0;525.08;18.094
689.73;19.112;2822.1;526.43;18.099
689.98;15.858;2826.1;526.11;18.157
690.24;17.367;2828.9;527.25;18.135
690.50;10.071;2825.1;520.17;18.121
690.76;8.9917;2829.1;523.67;18.251
691.01;8.5125;2831.2;523.65;18.250
691.27;11.404;2836.8;527.15;18.254
691.53;15.446;2838.4;531.85;18.293
691.79;17.300;2839.8;530.73;18.191
692.04;23.721;2846.8;537.74;18.208
692.30;20.992;2843.7;536.57;18.265
692.56;20.704;2846.5;536.53;18.254
692.81;21.433;2852.0;539.83;18.314
693.07;13.238;2851.8;533.82;18.340
693.33;7.9375;2851.0;529.21;18.335
693.59;5.0875;2850.9;530.22;18.453
693.84;2.4208;2851.1;526.97;18.414
694.10;8.6000;2851.9;531.63;18.395
694.36;7.1625;2850.0;531.50;18.444
694.61;4.5833;2839.8;526.44;18.406
694.87;11.208;2839.0;531.81;18.411
695.13;11.392;2841.8;531.72;18.383
695.38;11.725;2834.9;532.99;18.464
695.64;11.246;2836.2;534.61;18.527
695.90;8.8333;2835.9;532.35;18.518
696.15;8.9125;2835.7;532.00;18.505
696.41;7.3708;2836.8;532.37;18.555
696.67;10.558;2835.6;537.38;18.649
696.92;14.825;2839.1;541.65;18.653
697.18;14.108;2840.7;540.70;18.630
697.44;15.525;2842.3;544.41;18.710
697.69;17.054;2840.2;549.00;18.842
697.95;19.625;2837.3;553.20;18.937
698.21;19.925;2837.5;552.06;18.886
698.46;16.642;2832.9;545.91;18.793
698.72;13.367;2821.5;543.72;18.887
698.98;11.113;2809.1;540.25;18.911
699.23;10.038;2798.5;533.51;18.772
699.49;2.3500;2788.9;536.30;19.162
699.75;3.7500;2765.6;528.13;18.987
700.00;8.8500;2772.4;509.90;18.130
