
Integration time [ms]:  84.900
Averaging Nr. [scans]: 10
Smoothing Nr. [pixels]: 1
Data measured with spectrometer [name]: 1501154U1
Wave   ;Sample   ;Dark     ;Reference;Reflectance
[nm]   ;[counts] ;[counts] ;[counts] ;[%]

 174.78;  -15.000;  -14.500;    2.400;-2.95858
 175.38;   14.400;    3.167;   14.333;100.59701
 175.99;   17.000;    7.000;   19.767;78.32898
 176.59;   20.633;   13.267;   21.400;90.57377
 177.20;    3.233;   -2.667;   18.267;28.18471
 177.80;   40.933;   19.200;   40.167;103.65660
 178.40;   22.167;   13.333;   33.033;44.83925
 179.01;   53.367;   29.233;   46.900;136.60375
 179.61;   14.033;   -4.567;   15.133;94.41625
 180.21;   12.467;  -10.467;    8.733;119.44444
 180.82;  -18.033;  -14.967;    1.167;-19.00826
 181.42;   -1.933;    6.333;   18.033;-70.65528
 182.03;  -13.800;   -3.400;   12.767;-64.32990
 182.63;    8.767;    3.833;   30.667;18.38509
 183.23;   -4.967;    1.367;   30.900;-21.44470
 183.84;   26.900;   21.867;   47.800;19.40874
 184.44;   11.133;   16.000;   29.533;-35.96059
 185.04;    7.300;    4.567;   16.467;22.96919
 185.65;  -25.800;  -20.433;   -3.167;-31.08108
 186.25;  -30.133;  -29.333;  -19.067;-7.79220
 186.85;  -28.800;  -34.433;  -20.933;41.72840
 187.46;  -20.400;  -37.700;  -30.500;240.27777
 188.06;  -29.967;  -52.367;  -37.133;147.04597
 188.66;   -2.500;  -26.500;  -10.800;152.86624
 189.27;   13.200;   -7.100;   14.267;95.00780
 189.87;   35.000;   11.267;   37.367;90.93232
 190.47;   21.800;    1.767;   31.367;67.68018
 191.08;    8.367;  -10.133;   22.600;56.51731
 191.68;   20.700;    7.800;   43.667;35.96654
 192.28;    6.433;   -6.900;   29.233;36.90037
 192.89;   23.933;    1.833;   37.800;61.44578
 193.49;   29.800;    5.467;   39.300;71.92118
 194.09;   41.567;   10.333;   46.833;85.57078
 194.69;   48.800;   34.033;   69.767;41.32462
 195.30;   23.633;   14.333;   48.867;26.93050
 195.90;   30.500;   24.333;   67.700;14.21983
 196.50;   11.400;    2.233;   53.233;17.97386
 197.11;   10.000;    0.000;   52.300;19.12046
 197.71;  -19.000;   -8.167;   20.367;-37.96729
 198.31;  -32.833;  -29.333;   10.233;-8.84582
 198.91;  -33.200;  -26.700;   14.067;-15.94440
 199.52;  -25.767;  -29.600;   22.000; 7.42894
 200.12;  -17.667;   -9.933;   26.300;-21.34314
 200.72;  -19.767;  -19.467;   21.867;-0.72580
 201.33;  -33.533;  -37.300;   19.900; 6.58508
 201.93;   -1.467;  -11.400;   45.933;17.32558
 202.53;   -0.433;   -0.267;   50.600;-0.32765
 203.13;   26.133;   22.633;   63.367; 8.59247
 203.74;  -11.667;  -23.067;   23.067;24.71098
 204.34;  -13.933;  -40.167;   15.800;46.87314
 204.94;  -42.733;  -61.067;    3.333;28.46791
 205.54;  -38.000;  -45.000;   14.267;11.81102
 206.15;  -23.400;  -31.900;   33.167;13.06352
 206.75;   -9.600;  -24.533;   45.367;21.36385
 207.35;    2.167;  -17.633;   58.100;26.14437
 207.95;  -12.367;  -24.667;   50.300;16.40729
 208.56;  -27.933;  -33.267;   42.400; 7.04846
 209.16;  -42.633;  -48.800;   23.533; 8.52534
 209.76;  -53.233;  -61.400;   19.100;10.14493
 210.36;  -20.333;  -40.133;   33.967;26.72065
 210.96;  -32.467;  -43.367;   36.833;13.59102
 211.57;    3.533;  -12.967;   68.267;20.31186
 212.17;  -24.433;  -31.167;   50.733; 8.22141
 212.77;   -4.467;  -23.967;   68.700;21.04317
 213.37;  -11.333;  -28.133;   72.100;16.76089
 213.97;    8.467;  -18.100;   93.667;23.76976
 214.58;   -6.400;  -18.500;   92.667;10.88456
 215.18;    8.500;   -7.600;   93.900;15.86207
 215.78;   -9.167;  -17.600;   77.500; 8.86786
 216.38;   10.700;  -11.533;   89.667;21.96970
 216.98;  -16.433;  -23.467;   75.433; 7.11156
 217.59;   -3.333;  -20.833;   80.267;17.30959
 218.19;   -2.167;  -17.300;   80.600;15.45795
 218.79;   19.167;  -10.467;   93.600;28.47534
 219.39;   16.500;    0.933;  115.067;13.63902
 219.99;    8.167;  -11.533;  108.433;16.42123
 220.60;  -12.733;  -23.567;  106.533; 8.32693
 221.20;   -3.667;  -30.367;  105.267;19.68543
 221.80;  -14.100;  -27.800;  114.733; 9.61179
 222.40;  -29.700;  -44.367;  110.633; 9.46236
 223.00;  -30.500;  -37.467;  124.167; 4.31017
 223.60;   -5.833;  -16.267;  144.033; 6.50863
 224.21;    5.933;   -6.767;  154.000; 7.89965
 224.81;   23.067;   -0.167;  166.567;13.93443
 225.41;  -10.533;  -28.633;  152.533; 9.99080
 226.01;    3.700;  -17.133;  159.467;11.79690
 226.61;  -24.700;  -28.433;  144.067; 2.16425
 227.21;   -8.467;  -26.733;  149.267;10.37879
 227.81;   -4.700;  -19.667;  173.867; 7.73338
 228.42;   13.600;   -8.733;  207.733;10.31722
 229.02;    8.733;   -7.567;  219.000; 7.19435
 229.62;    1.800;  -20.633;  212.867; 9.60742
 230.22;   17.500;  -17.067;  217.433;14.74058
 230.82;   33.200;   -5.700;  234.700;16.18136
 231.42;   43.033;    2.633;  264.033;15.45524
 232.02;   18.567;  -18.533;  265.100;13.08027
 232.62;   19.000;  -16.500;  272.767;12.27241
 233.23;   23.633;  -17.033;  281.233;13.63433
 233.83;   18.400;  -10.767;  276.167;10.16496
 234.43;   33.067;    3.767;  306.200; 9.68808
 235.03;   13.367;  -10.467;  308.133; 7.48064
 235.63;    7.733;  -18.000;  320.500; 7.60217
 236.23;  -19.733;  -47.033;  297.533; 7.92300
 236.83;   -3.967;  -35.867;  307.967; 9.27775
 237.43;   18.267;  -18.467;  333.467;10.43758
 238.03;   32.067;  -16.167;  342.533;13.44671
 238.63;   15.667;  -21.500;  323.467;10.77399
 239.24;   15.733;  -25.433;  310.600;12.25077
 239.84;   -1.133;  -27.200;  313.533; 7.65017
 240.44;   21.233;  -14.700;  330.733;10.40239
 241.04;   20.767;   -7.267;  342.633; 8.01181
 241.64;   27.933;   -2.100;  346.467; 8.61624
 242.24;   22.433;    6.300;  348.633; 4.71276
 242.84;   16.600;    1.900;  340.400; 4.34269
 243.44;   23.467;    7.667;  350.467; 4.60910
 244.04;   -4.033;  -26.067;  319.033; 6.38462
 244.64;   -1.267;  -27.067;  322.933; 7.37143
 245.24;   19.367;  -12.933;  344.200; 9.04424
 245.84;   24.567;    2.600;  359.233; 6.15945
 246.44;    3.833;  -18.867;  347.933; 6.18866
 247.04;  -20.267;  -31.100;  334.100; 2.96641
 247.64;  -18.433;  -47.067;  333.900; 7.51597
 248.24;   -0.900;  -29.700;  350.533; 7.57430
 248.84;    1.767;  -27.433;  349.667; 7.74330
 249.44;    0.300;  -24.600;  361.433; 6.45022
 250.04;  -17.633;  -47.267;  358.700; 7.29945
 250.65;  -11.300;  -53.933;  372.000;10.00939
 251.25;  -12.567;  -52.600;  384.133; 9.16654
 251.85;  -15.200;  -47.500;  406.400; 7.11611
 252.45;  -22.367;  -51.500;  424.533; 6.12002
 253.05;  -13.167;  -42.967;  465.567; 5.85999
 253.65;   16.467;  -20.400;  504.467; 7.02401
 254.25;   20.533;  -18.967;  523.533; 7.28111
 254.85;   11.633;  -27.033;  542.533; 6.78879
 255.45;   -0.167;  -34.333;  563.067; 5.71923
 256.05;   10.733;  -40.500;  593.767; 8.07757
 256.65;   28.100;  -33.233;  633.500; 9.19908
 257.25;   33.500;  -38.300;  658.933;10.29784
 257.85;   14.833;  -31.367;  679.367; 6.50033
 258.45;   24.600;  -12.000;  696.733; 5.16414
 259.05;   34.967;    2.667;  730.967; 4.43499
 259.65;   36.267;  -12.200;  736.067; 6.47719
 260.25;   18.467;  -34.367;  734.267; 6.87367
 260.85;   -4.833;  -57.267;  723.400; 6.71648
 261.44;    1.833;  -33.967;  763.367; 4.48997
 262.04;    1.333;  -37.133;  792.700; 4.63547
 262.64;    6.700;  -27.267;  823.433; 3.99279
 263.24;    5.700;  -42.900;  831.033; 5.56107
 263.84;   -5.567;  -59.500;  842.033; 5.98240
 264.44;   -4.700;  -71.000;  841.633; 7.26469
 265.04;   -3.933;  -69.433;  857.467; 7.06657
 265.64;    7.633;  -51.233;  869.467; 6.39369
 266.24;   19.033;  -35.900;  888.267; 5.94409
 266.84;   16.167;  -31.700;  904.533; 5.11269
 267.44;   36.733;  -14.533;  933.167; 5.40959
 268.04;   37.367;   -7.667;  961.900; 4.64469
 268.64;   39.200;  -10.600;  970.233; 5.07732
 269.24;   17.433;  -37.133;  954.900; 5.50049
 269.84;   20.567;  -44.333;  953.267; 6.50561
 270.44;   13.167;  -40.367;  957.667; 5.36388
 271.04;   14.800;  -30.800;  973.367; 4.54108
 271.64;    4.133;  -27.433;  975.900; 3.14618
 272.23;   11.300;  -29.700;  998.533; 3.98742
 272.83;   24.400;  -23.167; 1000.100; 4.64851
 273.43;   26.367;  -35.233; 1017.100; 5.85366
 274.03;   13.700;  -48.533;  995.433; 5.96124
 274.63;   16.800;  -45.900; 1020.467; 5.87978
 275.23;   20.100;  -38.233; 1013.500; 5.54640
 275.83;   27.567;  -22.867; 1027.333; 4.80226
 276.43;   19.567;  -33.400; 1014.733; 5.05343
 277.03;   27.000;  -12.033; 1029.700; 3.74696
 277.63;   49.767;    0.600; 1028.867; 4.78151
 278.22;   56.133;   17.600; 1026.200; 3.82048
 278.82;   61.300;    2.667; 1027.033; 5.72386
 279.42;   31.700;  -22.233; 1021.733; 5.16619
 280.02;   22.867;  -30.533; 1015.600; 5.10451
 280.62;   25.000;  -18.633; 1010.667; 4.23913
 281.22;   41.767;   -3.833; 1015.567; 4.47322
 281.82;   31.400;  -14.633; 1033.067; 4.39375
 282.42;   28.333;  -18.667; 1029.933; 4.48217
 283.01;   26.567;  -20.133; 1048.467; 4.37020
 283.61;   49.467;    2.767; 1048.167; 4.46719
 284.21;   37.667;    0.733; 1044.033; 3.54005
 284.81;   42.800;    4.900; 1041.233; 3.65712
 285.41;   31.100;  -10.667; 1047.767; 3.94608
 286.01;   38.633;  -16.833; 1047.000; 5.21385
 286.61;   20.867;  -22.933; 1021.900; 4.19206
 287.20;   27.500;  -23.833;  995.033; 5.03828
 287.80;   32.433;  -30.200;  996.800; 6.09867
 288.40;   56.367;  -20.533; 1014.200; 7.43187
 289.00;   34.233;  -27.533; 1014.067; 5.92998
 289.60;   32.400;  -12.833; 1031.867; 4.32979
 290.20;   20.333;  -23.067; 1019.167; 4.16413
 290.79;   30.100;  -19.933; 1030.467; 4.76326
 291.39;   -0.200;  -37.133; 1012.367; 3.51914
 291.99;    8.733;  -30.033; 1032.000; 3.65023
 292.59;   13.633;  -23.833; 1041.167; 3.51800
 293.19;   34.100;  -15.467; 1058.400; 4.61572
 293.78;    4.533;  -32.433; 1039.800; 3.44763
 294.38;   14.233;  -17.800; 1049.700; 3.00078
 294.98;   -2.433;  -34.167; 1036.967; 2.96259
 295.58;   29.167;  -11.767; 1053.600; 3.84218
 296.18;   10.700;  -33.833; 1056.667; 4.08375
 296.77;   26.767;  -27.333; 1043.633; 5.05151
 297.37;   36.633;  -25.267; 1059.133; 5.70823
 297.97;   38.133;  -19.833; 1038.633; 5.47648
 298.57;   64.667;   21.367; 1096.500; 4.02741
 299.17;   28.733;   -4.767; 1068.033; 3.12267
 299.76;   26.100;   -7.167; 1075.900; 3.07153
 300.36;   -6.967;  -60.500; 1032.133; 4.89948
 300.96;  -12.367;  -72.367; 1031.967; 5.43314
 301.56;   -0.533;  -71.000; 1034.167; 6.37611
 302.15;   -0.367;  -63.300; 1048.067; 5.66270
 302.75;   35.200;  -35.633; 1075.867; 6.37277
 303.35;   38.867;  -33.067; 1071.667; 6.51138
 303.95;   35.433;  -39.933; 1074.000; 6.76582
 304.54;   16.100;  -44.833; 1067.667; 5.47715
 305.14;   -1.367;  -60.967; 1056.700; 5.33254
 305.74;    8.433;  -44.233; 1066.067; 4.74346
 306.34;   18.333;  -42.533; 1062.433; 5.50846
 306.93;   26.767;  -33.000; 1084.233; 5.34952
 307.53;    9.500;  -51.233; 1049.733; 5.51636
 308.13;   -8.700;  -55.233; 1032.667; 4.27735
 308.73;    5.933;  -45.933; 1057.667; 4.69977
 309.32;   15.900;  -24.900; 1087.267; 3.66851
 309.92;   33.433;  -16.833; 1104.200; 4.48396
 310.52;   10.833;  -27.367; 1083.167; 3.43979
 311.12;    5.267;  -37.733; 1071.433; 3.87678
 311.71;  -13.733;  -54.033; 1077.233; 3.56238
 312.31;   11.333;  -36.567; 1090.833; 4.24871
 312.91;   18.667;  -31.800; 1095.767; 4.47571
 313.50;   40.400;  -12.067; 1123.367; 4.62085
 314.10;    8.267;  -31.267; 1100.900; 3.49183
 314.70;   13.600;  -31.500; 1101.067; 3.98211
 315.29;   12.100;  -24.400; 1100.767; 3.24396
 315.89;   18.533;  -18.467; 1119.967; 3.25008
 316.49;    3.233;  -33.933; 1128.467; 3.19741
 317.09;   12.100;  -30.900; 1134.067; 3.69109
 317.68;    9.133;  -44.867; 1118.633; 4.64117
 318.28;   31.000;  -25.833; 1128.433; 4.92376
 318.88;   -6.367;  -59.300; 1099.033; 4.56978
 319.47;    3.400;  -59.833; 1098.833; 5.45742
 320.07;   -6.167;  -67.833; 1103.100; 5.26645
 320.67;   21.367;  -50.800; 1104.067; 6.24892
 321.26;   21.800;  -52.367; 1099.800; 6.43715
 321.86;   18.733;  -47.200; 1093.833; 5.77839
 322.46;    8.700;  -50.000; 1110.700; 5.05729
 323.05;   21.433;  -36.400; 1141.000; 4.91195
 323.65;    9.200;  -39.300; 1134.400; 4.13223
 324.25;   10.267;  -36.833; 1126.367; 4.04917
 324.84;   -6.600;  -46.800; 1132.133; 3.40986
 325.44;   -9.533;  -56.333; 1124.067; 3.96476
 326.03;  -10.167;  -49.533; 1130.767; 3.33531
 326.63;   16.167;  -23.233; 1125.000; 3.43136
 327.23;   28.833;  -24.167; 1112.767; 4.66166
 327.82;   41.300;  -25.167; 1105.633; 5.87784
 328.42;    0.533;  -58.267; 1075.967; 5.18412
 329.02;    2.033;  -51.867; 1089.667; 4.72172
 329.61;   -3.800;  -53.567; 1105.367; 4.29418
 330.21;   16.900;  -36.900; 1106.500; 4.70527
 330.80;   10.633;  -34.267; 1096.633; 3.97029
 331.40;   12.400;  -34.500; 1072.633; 4.23617
 332.00;    0.300;  -33.533; 1084.933; 3.02497
 332.59;    6.700;  -30.367; 1088.333; 3.31337
 333.19;   16.933;  -22.733; 1098.367; 3.53819
 333.78;   40.833;  -11.900; 1105.567; 4.71901
 334.38;   27.500;  -17.467; 1095.467; 4.04037
 334.98;    5.867;  -40.767; 1053.200; 4.26277
 335.57;  -13.167;  -52.000; 1030.467; 3.58749
 336.17;   -3.000;  -49.900; 1043.933; 4.28767
 336.76;    7.633;  -29.967; 1073.667; 3.40693
 337.36;   20.800;  -21.100; 1096.867; 3.74788
 337.96;   36.533;  -10.333; 1110.900; 4.17992
 338.55;   33.833;  -19.900; 1098.533; 4.80434
 339.15;   23.000;  -40.433; 1082.767; 5.64755
 339.74;    1.600;  -56.833; 1047.133; 5.29303
 340.34;    4.733;  -49.300; 1053.133; 4.90128
 340.93;   13.100;  -30.367; 1050.133; 4.02283
 341.53;   14.067;  -15.767; 1034.000; 2.84190
 342.12;    2.833;  -28.500; 1014.567; 3.00396
 342.72;  -17.000;  -43.733;  994.500; 2.57489
 343.32;   11.800;  -39.900; 1021.933; 4.86894
 343.91;   14.300;  -34.067; 1021.133; 4.58365
 344.51;   31.633;  -25.867; 1027.600; 5.45817
 345.10;   -1.967;  -45.967; 1011.933; 4.15918
 345.70;   -2.100;  -56.233;  991.700; 5.16572
 346.29;   -5.100;  -44.900; 1006.033; 3.78711
 346.89;   18.833;  -25.500; 1015.300; 4.25954
 347.48;   16.433;  -12.833; 1032.033; 2.80100
 348.08;   41.767;  -13.967; 1039.567; 5.29013
 348.67;   20.167;  -26.100; 1030.933; 4.37703
 349.27;   32.533;  -27.633; 1038.933; 5.64115
 349.86;   -1.333;  -41.533; 1007.833; 3.83088
 350.46;    8.400;  -54.700; 1013.133; 5.90916
 351.05;   -6.500;  -62.900; 1013.733; 5.23855
 351.65;   -0.167;  -57.200; 1026.067; 5.26494
 352.24;   12.167;  -31.333; 1042.733; 4.05003
 352.84;    8.500;  -45.367; 1022.233; 5.04558
 353.43;   13.267;  -47.000; 1020.367; 5.64629
 354.03;    4.200;  -56.600; 1006.233; 5.72056
 354.62;    4.900;  -38.067; 1029.300; 4.02548
 355.22;   -6.533;  -47.600; 1019.567; 3.84820
 355.81;   38.133;   -5.900; 1064.133; 4.11514
 356.41;   90.033;   33.933; 1108.933; 5.21860
 357.00;  107.233;   57.233; 1149.933; 4.57582
 357.60;   66.333;   12.000; 1118.700; 4.90949
 358.19;   20.600;  -38.200; 1083.167; 5.24360
 358.79;    3.500;  -59.633; 1042.033; 5.73071
 359.38;    7.433;  -50.367; 1053.400; 5.23661
 359.98;   -2.100;  -56.667; 1053.967; 4.91311
 360.57;   15.033;  -42.600; 1091.367; 5.08245
 361.16;   -4.100;  -61.600; 1076.400; 5.05272
 361.76;   10.767;  -44.000; 1103.267; 4.77366
 362.35;   35.200;  -28.400; 1138.967; 5.44816
 362.95;   69.400;   13.900; 1200.967; 4.67539
 363.54;  106.600;   34.800; 1218.733; 6.06453
 364.14;   62.200;    2.400; 1187.567; 5.04570
 364.73;   58.200;  -14.933; 1177.767; 6.13175
 365.32;   40.067;  -12.633; 1201.100; 4.34198
 365.92;   86.833;   15.000; 1264.500; 5.74897
 366.51;   67.533;   -2.000; 1256.533; 5.52495
 367.11;   74.133;   -5.800; 1267.567; 6.27732
 367.70;   20.167;  -43.967; 1244.967; 4.97569
 368.30;   17.700;  -49.400; 1283.600; 5.03376
 368.89;  -10.900;  -77.367; 1281.000; 4.89313
 369.48;   19.567;  -50.933; 1303.500; 5.20513
 370.08;   36.533;  -30.700; 1315.467; 4.99443
 370.67;   54.167;  -17.100; 1343.167; 5.23917
 371.27;   54.733;  -21.867; 1385.133; 5.44421
 371.86;   46.167;  -42.533; 1394.833; 6.17101
 372.45;   60.800;  -40.167; 1401.867; 7.00169
 373.05;   54.667;  -55.267; 1388.533; 7.61417
 373.64;   61.300;  -36.967; 1419.967; 6.74476
 374.23;   45.500;  -41.767; 1454.200; 5.83346
 374.83;   48.967;  -16.667; 1496.533; 4.33739
 375.42;   40.133;  -29.733; 1500.267; 4.56645
 376.02;   40.467;  -19.167; 1528.667; 3.85270
 376.61;   47.133;  -26.933; 1528.133; 4.76293
 377.20;   57.367;  -16.933; 1553.567; 4.73098
 377.80;   71.500;  -18.500; 1549.000; 5.74163
 378.39;   64.233;  -36.100; 1581.533; 6.20248
 378.98;   75.067;  -31.467; 1617.867; 6.45918
 379.58;   52.233;  -48.000; 1646.600; 5.91487
 380.17;   50.833;  -42.367; 1661.733; 5.46916
 380.76;   19.233;  -62.833; 1670.567; 4.73443
 381.36;   46.933;  -32.933; 1716.133; 4.56625
 381.95;   48.200;  -25.033; 1735.000; 4.16091
 382.54;   69.300;  -16.100; 1772.467; 4.77477
 383.14;   38.000;  -47.033; 1764.300; 4.69452
 383.73;   48.967;  -47.067; 1779.767; 5.25682
 384.32;   43.333;  -39.800; 1799.067; 4.52090
 384.92;   56.067;  -38.367; 1829.500; 5.05568
 385.51;   49.333;  -33.067; 1863.533; 4.34462
 386.10;   66.100;  -26.200; 1884.600; 4.83044
 386.70;   72.567;  -22.300; 1897.567; 4.94132
 387.29;   69.667;  -34.600; 1929.733; 5.30799
 387.88;   61.400;  -54.267; 1953.167; 5.76192
 388.48;   42.733;  -65.833; 1983.767; 5.29697
 389.07;   53.467;  -63.800; 2015.567; 5.63954
 389.66;   55.200;  -54.933; 2050.533; 5.23083
 390.25;   81.000;  -40.733; 2124.000; 5.62348
 390.85;  105.667;  -24.267; 2184.600; 5.88235
 391.44;   98.133;  -39.700; 2213.033; 6.11849
 392.03;   93.600;  -48.400; 2264.300; 6.14001
 392.63;   72.833;  -70.300; 2289.967; 6.06429
 393.22;   92.700;  -47.800; 2363.733; 5.82617
 393.81;   83.000;  -50.833; 2345.667; 5.58453
 394.40;   83.800;  -35.800; 2376.067; 4.95881
 395.00;  103.600;  -32.533; 2390.367; 5.61861
 395.59;  121.900;  -18.333; 2441.833; 5.70016
 396.18;  118.300;  -27.167; 2469.267; 5.82698
 396.77;   94.000;  -51.233; 2481.700; 5.73380
 397.37;   80.733;  -54.367; 2534.567; 5.21837
 397.96;   87.833;  -52.000; 2577.000; 5.31888
 398.55;   89.800;  -45.667; 2632.067; 5.05901
 399.14;  128.867;  -29.000; 2674.267; 5.83985
 399.74;  142.533;  -18.200; 2726.100; 5.85699
 400.33;  147.833;  -13.800; 2759.467; 5.82827
 400.92;  111.933;  -50.800; 2779.333; 5.75002
 401.51;  117.000;  -44.133; 2809.133; 5.64733
 402.10;  124.033;  -39.067; 2854.933; 5.63580
 402.70;  144.233;  -21.867; 2880.500; 5.72292
 403.29;  137.567;  -30.633; 2931.200; 5.67892
 403.88;  133.967;  -33.867; 2984.500; 5.56040
 404.47;  120.433;  -49.967; 3069.067; 5.46323
 405.07;  130.700;  -36.467; 3120.033; 5.29595
 405.66;  127.400;  -45.233; 3149.600; 5.40352
 406.25;  147.400;  -30.567; 3172.167; 5.55671
 406.84;  128.767;  -61.567; 3178.333; 5.87467
 407.43;  136.333;  -54.833; 3238.100; 5.80536
 408.03;  163.467;  -20.667; 3352.533; 5.45871
 408.62;  195.133;   -5.700; 3476.633; 5.76721
 409.21;  184.267;  -18.700; 3548.033; 5.69055
 409.80;  153.100;  -63.633; 3557.333; 5.98551
 410.39;  135.800;  -82.233; 3572.833; 5.96524
 410.98;  168.167;  -60.900; 3614.467; 6.23249
 411.58;  194.833;  -48.700; 3683.400; 6.52537
 412.17;  206.100;  -53.700; 3750.367; 6.82953
 412.76;  215.533;  -56.800; 3847.067; 6.97599
 413.35;  204.400;  -54.133; 3917.067; 6.51021
 413.94;  233.633;   -9.667; 3985.033; 6.09057
 414.53;  223.100;  -15.733; 4005.167; 5.93980
 415.13;  233.967;  -21.000; 4062.767; 6.24342
 415.72;  237.667;  -22.000; 4115.900; 6.27533
 416.31;  229.667;  -27.567; 4188.167; 6.10175
 416.90;  223.033;  -37.600; 4204.967; 6.14329
 417.49;  229.167;  -43.033; 4315.267; 6.24555
 418.08;  242.567;  -41.900; 4387.700; 6.42195
 418.67;  264.800;  -11.367; 4528.267; 6.08346
 419.26;  257.267;  -30.000; 4545.100; 6.27892
 419.86;  254.033;  -28.433; 4637.600; 6.05368
 420.45;  249.433;  -41.933; 4679.500; 6.17115
 421.04;  253.233;  -30.767; 4793.667; 5.88670
 421.63;  272.333;  -36.933; 4866.233; 6.30749
 422.22;  269.967;  -52.133; 4973.033; 6.40974
 422.81;  271.000;  -67.700; 5028.933; 6.64556
 423.40;  286.633;  -47.000; 5123.833; 6.45222
 423.99;  304.800;  -29.267; 5202.433; 6.38543
 424.58;  290.367;  -30.000; 5281.300; 6.03179
 425.17;  292.467;  -39.000; 5346.667; 6.15461
 425.77;  282.867;  -48.700; 5393.367; 6.09266
 426.36;  309.667;  -38.833; 5498.200; 6.29398
 426.95;  315.767;  -34.967; 5596.433; 6.22817
 427.54;  326.800;  -41.867; 5706.633; 6.41327
 428.13;  343.267;  -49.600; 5893.867; 6.61006
 428.72;  376.400;  -44.800; 6085.667; 6.87060
 429.31;  386.133;  -46.567; 6286.433; 6.83247
 429.90;  397.233;  -25.067; 6436.400; 6.53567
 430.49;  386.600;  -30.233; 6590.733; 6.29566
 431.08;  401.867;  -24.600; 6748.667; 6.29632
 431.67;  394.000;  -51.100; 6838.400; 6.46056
 432.26;  398.400;  -64.633; 6949.567; 6.60137
 432.85;  427.967;  -57.133; 7137.533; 6.74249
 433.44;  469.267;  -37.900; 7351.900; 6.86306
 434.03;  486.000;  -35.167; 7576.400; 6.84704
 434.62;  500.533;  -31.567; 7723.767; 6.86108
 435.21;  489.833;  -53.667; 7917.700; 6.81815
 435.81;  502.867;  -48.333; 8077.933; 6.78294
 436.40;  533.733;  -34.200; 8312.833; 6.80401
 436.99;  572.867;  -22.400; 8567.866; 6.92955
 437.58;  581.267;  -26.500; 8878.733; 6.82483
 438.17;  571.733;  -46.600; 9174.100; 6.70593
 438.76;  586.567;  -50.567; 9482.500; 6.68340
 439.35;  624.267;  -40.233; 9829.434; 6.73275
 439.94;  654.667;  -41.967;10162.934; 6.82646
 440.53;  657.233;  -50.900;10477.134; 6.72617
 441.12;  684.633;  -57.167;10892.500; 6.77464
 441.71;  702.667;  -60.367;11272.233; 6.73308
 442.30;  735.567;  -48.300;11668.833; 6.68992
 442.89;  744.467;  -51.933;11855.733; 6.68813
 443.48;  772.500;  -48.900;12161.300; 6.72716
 444.07;  794.367;  -49.367;12359.566; 6.79940
 444.66;  832.667;  -47.500;12644.967; 6.93456
 445.25;  848.367;  -48.467;12825.833; 6.96607
 445.83;  880.600;  -38.867;13091.967; 7.00235
 446.42;  890.567;  -38.200;13339.434; 6.94268
 447.01;  922.967;  -27.067;13624.600; 6.95910
 447.60;  942.333;  -32.900;13832.500; 7.03358
 448.19;  943.067;  -41.700;14025.900; 7.00025
 448.78;  958.967;  -38.100;14235.000; 6.98564
 449.37;  954.233;  -50.167;14448.967; 6.92731
 449.96;  980.000;  -47.600;14683.833; 6.97556
 450.55;  994.233;  -52.700;14866.366; 7.01742
 451.14; 1035.300;  -48.000;15108.733; 7.14732
 451.73; 1049.533;  -65.900;15307.800; 7.25546
 452.32; 1069.567;  -60.133;15551.833; 7.23612
 452.91; 1075.633;  -55.300;15703.934; 7.17632
 453.50; 1103.367;  -34.933;15920.967; 7.13404
 454.09; 1109.867;  -37.200;16131.366; 7.09442
 454.68; 1138.567;  -28.800;16409.500; 7.10150
 455.27; 1156.500;  -26.000;16608.268; 7.10882
 455.85; 1194.867;   -2.833;16781.699; 7.13574
 456.44; 1198.133;  -12.667;16954.033; 7.13633
 457.03; 1226.967;    0.067;17150.467; 7.15377
 457.62; 1201.767;  -34.233;17342.000; 7.11316
 458.21; 1215.300;  -19.700;17545.600; 7.03091
 458.80; 1195.333;  -49.433;17673.500; 7.02348
 459.39; 1213.467;  -53.633;17844.467; 7.07952
 459.98; 1223.100;  -49.400;17972.000; 7.06105
 460.57; 1255.367;  -17.033;18175.467; 6.99409
 461.15; 1290.533;   -3.633;18274.500; 7.08041
 461.74; 1294.633;  -22.100;18338.600; 7.17148
 462.33; 1295.067;  -46.533;18439.768; 7.25727
 462.92; 1308.033;  -48.033;18578.334; 7.28036
 463.51; 1320.633;  -48.267;18795.000; 7.26466
 464.10; 1335.567;  -39.567;18966.834; 7.23511
 464.69; 1296.433;  -61.033;19122.000; 7.07639
 465.28; 1314.633;  -51.767;19257.732; 7.07631
 465.86; 1301.433;  -54.633;19324.768; 6.99746
 466.45; 1340.600;  -40.900;19354.166; 7.12295
 467.04; 1332.667;  -40.200;19400.834; 7.06170
 467.63; 1361.967;  -37.633;19439.500; 7.18586
 468.22; 1350.567;  -40.667;19488.133; 7.12401
 468.81; 1343.300;  -62.233;19434.334; 7.20913
 469.39; 1345.333;  -51.933;19468.232; 7.15807
 469.98; 1354.100;  -53.467;19527.199; 7.18855
 470.57; 1350.267;  -35.267;19665.334; 7.03295
 471.16; 1333.533;  -48.433;19719.100; 6.99109
 471.75; 1337.667;  -26.433;19754.199; 6.89614
 472.34; 1336.867;  -39.000;19756.133; 6.95053
 472.92; 1336.367;  -34.900;19814.633; 6.90831
 473.51; 1329.133;  -61.200;19876.900; 6.97325
 474.10; 1357.167;  -51.800;19931.867; 7.05059
 474.69; 1361.967;  -68.167;19942.199; 7.14696
 475.28; 1376.667;  -49.833;19966.400; 7.12672
 475.86; 1359.867;  -65.467;19946.699; 7.12233
 476.45; 1351.700;  -65.233;19939.301; 7.08306
 477.04; 1339.533;  -85.767;19900.600; 7.13136
 477.63; 1346.700;  -83.267;19900.699; 7.15557
 478.21; 1353.233;  -75.633;19931.801; 7.14168
 478.80; 1335.833;  -69.333;19967.699; 7.01285
 479.39; 1334.267;  -52.467;20017.834; 6.90938
 479.98; 1330.800;  -40.700;20046.732; 6.82765
 480.57; 1338.767;  -41.933;20085.666; 6.85974
 481.15; 1316.333;  -54.900;20123.066; 6.79570
 481.74; 1319.133;  -51.767;20103.232; 6.80179
 482.33; 1313.067;  -33.833;20132.699; 6.67889
 482.92; 1309.633;  -42.400;20117.133; 6.70667
 483.50; 1300.467;  -56.033;20192.301; 6.69932
 484.09; 1309.567;  -76.567;20354.199; 6.78454
 484.68; 1342.600;  -71.967;20817.166; 6.77178
 485.27; 1373.167;  -60.867;21284.400; 6.71827
 485.85; 1395.400;  -60.267;21634.033; 6.70990
 486.44; 1410.967;  -36.767;21510.301; 6.71893
 487.03; 1396.600;  -18.933;21107.232; 6.70038
 487.61; 1400.367;    2.933;20764.967; 6.73072
 488.20; 1345.833;  -15.567;20552.000; 6.61916
 488.79; 1333.867;  -43.267;20559.033; 6.68437
 489.38; 1291.633;  -57.267;20528.732; 6.55251
 489.96; 1306.900;  -60.933;20573.600; 6.62886
 490.55; 1296.600;  -52.733;20672.834; 6.51048
 491.14; 1314.433;  -29.267;20777.633; 6.45795
 491.72; 1315.133;  -35.433;20909.934; 6.44804
 492.31; 1322.733;  -34.200;20994.066; 6.45290
 492.90; 1307.400;  -62.200;21052.033; 6.48662
 493.48; 1311.167;  -57.533;21162.699; 6.44998
 494.07; 1295.700;  -80.233;21229.732; 6.45676
 494.66; 1329.767;  -51.200;21391.900; 6.44014
 495.25; 1347.867;  -38.100;21526.732; 6.42698
 495.83; 1344.067;  -27.767;21697.133; 6.31457
 496.42; 1310.833;  -54.867;21756.033; 6.26155
 497.01; 1277.933;  -76.933;21844.367; 6.18059
 497.59; 1323.533;  -51.433;21963.268; 6.24567
 498.18; 1348.133;  -44.900;22161.699; 6.27306
 498.76; 1369.733;   -5.700;22375.533; 6.14548
 499.35; 1330.000;  -42.067;22542.000; 6.07537
 499.94; 1318.933;  -50.067;22644.268; 6.03234
 500.52; 1314.667;  -81.867;22704.400; 6.12884
 501.11; 1330.833;  -72.467;22847.801; 6.12253
 501.70; 1312.033;  -83.467;23037.867; 6.03555
 502.28; 1326.833;  -63.067;23186.400; 5.97820
 502.87; 1331.300;  -65.500;23432.600; 5.94431
 503.46; 1326.767;  -65.733;23562.367; 5.89341
 504.04; 1312.967;  -77.933;23762.768; 5.83414
 504.63; 1314.600;  -63.967;23843.768; 5.76620
 505.21; 1342.433;  -53.667;24083.100; 5.78412
 505.80; 1342.933;  -60.067;24279.367; 5.76431
 506.39; 1334.333;  -75.033;24480.633; 5.73948
 506.97; 1325.067;  -88.367;24643.834; 5.71495
 507.56; 1349.133;  -65.333;24865.934; 5.67346
 508.14; 1366.333;  -57.300;25125.066; 5.65329
 508.73; 1403.867;  -44.267;25369.334; 5.69826
 509.32; 1392.033;  -68.067;25534.768; 5.70288
 509.90; 1410.367;  -62.767;25696.100; 5.71894
 510.49; 1391.767;  -75.600;25873.367; 5.65482
 511.07; 1435.067;  -50.367;26117.801; 5.67649
 511.66; 1432.900;  -44.833;26371.066; 5.59411
 512.25; 1428.700;  -42.967;26622.801; 5.51894
 512.83; 1409.700;  -51.633;26914.066; 5.41923
 513.42; 1425.967;  -46.767;27232.133; 5.39880
 514.00; 1438.600;  -48.067;27524.834; 5.39177
 514.59; 1422.467;  -54.067;27793.199; 5.30226
 515.17; 1431.000;  -51.667;28103.033; 5.26614
 515.76; 1444.767;  -41.033;28413.000; 5.22176
 516.34; 1490.033;  -18.667;28724.199; 5.24895
 516.93; 1475.833;  -32.133;28960.100; 5.20128
 517.52; 1473.667;  -29.733;29237.533; 5.13680
 518.10; 1454.300;  -57.400;29524.467; 5.11023
 518.69; 1446.267;  -64.533;29776.834; 5.06277
 519.27; 1459.367;  -65.200;29977.467; 5.07467
 519.86; 1475.067;  -52.633;30224.699; 5.04569
 520.44; 1490.433;  -57.867;30493.900; 5.06779
 521.03; 1492.233;  -36.533;30862.666; 4.94759
 521.61; 1483.500;  -39.767;31131.699; 4.88673
 522.20; 1501.733;  -12.600;31407.666; 4.81961
 522.78; 1530.533;  -18.200;31668.967; 4.88757
 523.37; 1530.933;  -21.667;31924.199; 4.86010
 523.95; 1536.000;  -46.033;32211.900; 4.90432
 524.54; 1541.100;  -35.467;32516.600; 4.84322
 525.12; 1539.633;  -43.500;32736.100; 4.82963
 525.71; 1517.533;  -46.267;32921.434; 4.74343
 526.29; 1513.167;  -48.933;32997.934; 4.72692
 526.88; 1511.867;  -58.033;33152.465; 4.72712
 527.46; 1527.467;  -35.300;33372.266; 4.67788
 528.05; 1494.333;  -69.767;33644.734; 4.63925
 528.63; 1484.867;  -62.433;33932.434; 4.55157
 529.22; 1506.200;  -69.333;34161.832; 4.60263
 529.80; 1525.400;  -54.467;34354.000; 4.59151
 530.38; 1548.667;  -32.567;34571.234; 4.56954
 530.97; 1554.633;  -12.533;34816.934; 4.49954
 531.55; 1540.867;   -5.000;35080.035; 4.40606
 532.14; 1518.267;  -39.267;35385.266; 4.39676
 532.72; 1494.733;  -62.500;35678.535; 4.35699
 533.31; 1517.200;  -75.267;35929.465; 4.42294
 533.89; 1525.967;  -52.333;36187.766; 4.35512
 534.48; 1517.000;  -55.267;36397.934; 4.31311
 535.06; 1499.200;  -47.600;36666.066; 4.21314
 535.64; 1490.667;  -62.733;36845.035; 4.20887
 536.23; 1480.000;  -72.833;37078.465; 4.17976
 536.81; 1481.500;  -83.967;37429.566; 4.17307
 537.40; 1499.067;  -72.667;37828.934; 4.14688
 537.98; 1517.000;  -61.633;38244.500; 4.12110
 538.57; 1523.100;  -59.167;38567.965; 4.09626
 539.15; 1527.633;  -60.933;38814.535; 4.08630
 539.73; 1511.333;  -74.667;39092.934; 4.04927
 540.32; 1527.700;  -60.300;39585.832; 4.00543
 540.90; 1517.667;  -62.567;40070.699; 3.93746
 541.49; 1548.367;  -52.467;40495.234; 3.94802
 542.07; 1540.767;  -57.967;40834.266; 3.90963
 542.65; 1564.700;  -54.167;41213.266; 3.92287
 543.24; 1561.433;  -29.533;41672.035; 3.81512
 543.82; 1590.133;  -26.000;42009.566; 3.84468
 544.40; 1610.033;  -31.667;42453.535; 3.86417
 544.99; 1619.233;  -45.900;42836.898; 3.88299
 545.57; 1597.867;  -29.633;43316.898; 3.75463
 546.16; 1592.167;  -21.933;43688.301; 3.69273
 546.74; 1650.800;    5.200;44073.398; 3.73421
 547.32; 1705.233;    1.967;44346.133; 3.84102
 547.91; 1678.567;  -18.800;44604.699; 3.80375
 548.49; 1623.000;  -58.400;44874.867; 3.74199
 549.07; 1565.567;  -79.433;45089.633; 3.64187
 549.66; 1592.467;  -69.500;45393.301; 3.65566
 550.24; 1584.367;  -69.000;45572.934; 3.62247
 550.82; 1602.100;  -71.600;45871.965; 3.64295
 551.41; 1581.500;  -66.467;45954.633; 3.58089
 551.99; 1600.467;  -45.667;46122.602; 3.56551
 552.57; 1582.233;  -56.100;46157.602; 3.54512
 553.16; 1604.233;  -38.200;46426.867; 3.53477
 553.74; 1590.267;  -46.300;46604.867; 3.50809
 554.32; 1582.533;  -42.933;46769.566; 3.47229
 554.90; 1552.767;  -62.000;46875.133; 3.44028
 555.49; 1538.800;  -66.933;47066.965; 3.40675
 556.07; 1538.433;  -56.400;47222.566; 3.37324
 556.65; 1559.000;  -43.033;47376.434; 3.37843
 557.24; 1588.900;  -29.633;47517.367; 3.40407
 557.82; 1598.767;  -26.767;47554.934; 3.41630
 558.40; 1577.233;  -34.033;47599.766; 3.38261
 558.99; 1588.967;  -26.400;47647.035; 3.38840
 559.57; 1581.400;  -34.367;47815.266; 3.37676
 560.15; 1584.933;  -35.533;47899.699; 3.38053
 560.73; 1520.033;  -65.667;47970.035; 3.30109
 561.32; 1524.567;  -57.467;47988.199; 3.29277
 561.90; 1524.900;  -50.067;47973.668; 3.27956
 562.48; 1556.000;  -32.700;48028.332; 3.30559
 563.06; 1539.067;  -32.533;48059.898; 3.26787
 563.65; 1549.100;  -27.767;48190.266; 3.27028
 564.23; 1511.467;  -46.567;48035.898; 3.24034
 564.81; 1500.133;  -52.267;48078.867; 3.22536
 565.39; 1491.233;  -47.167;47951.734; 3.20507
 565.98; 1486.300;  -35.467;47997.035; 3.16820
 566.56; 1483.233;  -44.033;47979.168; 3.18027
 567.14; 1481.867;  -48.967;48063.035; 3.18181
 567.72; 1493.567;  -49.867;48088.898; 3.20622
 568.30; 1521.367;  -22.767;48211.566; 3.20132
 568.89; 1491.733;  -44.467;48355.434; 3.17397
 569.47; 1498.067;  -48.700;48574.301; 3.18114
 570.05; 1469.067;  -65.900;48633.898; 3.15190
 570.63; 1510.033;  -22.500;48757.832; 3.14170
 571.22; 1522.133;   18.667;48728.500; 3.08658
 571.80; 1528.033;   18.967;48695.465; 3.10020
 572.38; 1492.133;  -16.667;48555.566; 3.10630
 572.96; 1501.133;  -16.233;48539.668; 3.12499
 573.54; 1475.833;  -14.733;48644.102; 3.06330
 574.12; 1502.267;    6.433;48636.133; 3.07597
 574.71; 1449.000;  -37.533;48545.668; 3.05977
 575.29; 1460.667;  -38.167;48347.566; 3.09768
 575.87; 1409.533;  -62.400;48183.398; 3.05090
 576.45; 1406.033;  -59.700;48231.602; 3.03519
 577.03; 1423.300;  -50.867;48279.535; 3.05019
 577.61; 1432.900;  -44.600;48317.035; 3.05511
 578.20; 1434.567;  -34.467;48113.367; 3.05109
 578.78; 1456.467;    3.100;47881.867; 3.03551
 579.36; 1447.667;   -5.100;47614.332; 3.05079
 579.94; 1457.133;   -6.267;47555.434; 3.07685
 580.52; 1406.100;  -46.800;47633.898; 3.04714
 581.10; 1396.700;  -45.267;47909.668; 3.00692
 581.68; 1394.833;  -59.833;47916.500; 3.03205
 582.27; 1353.600;  -90.033;47555.398; 3.02995
 582.85; 1306.933; -111.000;47028.301; 3.00796
 583.43; 1268.200; -106.567;46710.398; 2.93647
 584.01; 1279.767;  -88.500;46677.500; 2.92577
 584.59; 1326.533;  -52.933;46828.102; 2.94248
 585.17; 1334.400;  -39.100;46893.699; 2.92652
 585.75; 1343.767;  -31.300;46841.699; 2.93360
 586.33; 1316.500;  -53.300;46695.398; 2.93014
 586.92; 1330.233;  -27.833;46535.234; 2.91662
 587.50; 1318.833;  -36.233;46424.434; 2.91659
 588.08; 1301.600;  -34.633;46213.801; 2.88925
 588.66; 1295.167;  -72.167;46070.035; 2.96330
 589.24; 1316.467;  -41.767;45985.066; 2.95096
 589.82; 1346.000;  -25.633;45949.668; 2.98341
 590.40; 1365.000;    5.133;45851.898; 2.96611
 590.98; 1343.833;  -18.967;45670.398; 2.98275
 591.56; 1325.200;  -30.300;45666.934; 2.96626
 592.14; 1310.667;  -37.500;45675.066; 2.94923
 592.72; 1279.933;  -48.667;45704.199; 2.90386
 593.30; 1282.600;  -47.900;45582.398; 2.91583
 593.88; 1283.800;  -58.500;45440.934; 2.95015
 594.46; 1301.200;  -52.433;45233.102; 2.98911
 595.05; 1288.400;  -62.167;45002.234; 2.99697
 595.63; 1288.867;  -53.067;44900.801; 2.98513
 596.21; 1284.000;  -55.667;44743.434; 2.99039
 596.79; 1282.733;  -55.600;44708.535; 2.98974
 597.37; 1270.633;  -72.333;44766.398; 2.99510
 597.95; 1264.767;  -63.733;44870.801; 2.95652
 598.53; 1277.767;  -57.333;44865.266; 2.97200
 599.11; 1259.867;  -55.433;44700.867; 2.93880
 599.69; 1262.467;  -67.133;44569.066; 2.97875
 600.27; 1255.100;  -72.800;44421.500; 2.98443
 600.85; 1259.400;  -83.933;44295.668; 3.02692
 601.43; 1257.967;  -76.067;44206.234; 3.01257
 602.01; 1276.867;  -56.600;44211.102; 3.01228
 602.59; 1276.767;  -41.200;44093.566; 2.98623
 603.17; 1274.200;  -48.233;44039.066; 2.99958
 603.75; 1274.800;  -49.533;43828.434; 3.01822
 604.33; 1265.033;  -63.000;43668.332; 3.03680
 604.91; 1266.233;  -58.700;43425.668; 3.04692
 605.49; 1285.800;  -29.100;43379.535; 3.02912
 606.07; 1260.167;  -35.067;43141.367; 2.99986
 606.65; 1257.900;  -28.467;42888.668; 2.99733
 607.23; 1257.500;  -16.100;42521.602; 2.99405
 607.81; 1247.433;   -6.867;42249.434; 2.96831
 608.39; 1235.500;   10.567;41833.832; 2.92883
 608.97; 1167.433;  -47.767;41325.066; 2.93719
 609.54; 1154.033;  -56.433;40721.934; 2.96840
 610.12; 1127.000;  -82.133;40204.934; 3.00129
 610.70; 1113.200;  -63.800;39766.133; 2.95506
 611.28; 1118.933;  -55.800;39587.801; 2.96324
 611.86; 1132.200;  -56.300;39547.102; 3.00100
 612.44; 1134.267;  -62.800;39661.602; 3.01343
 613.02; 1156.033;  -53.133;39744.934; 3.03825
 613.60; 1181.033;  -35.833;39719.734; 3.06087
 614.18; 1173.800;  -49.333;39565.801; 3.08754
 614.76; 1186.133;  -36.600;39486.535; 3.09372
 615.34; 1165.600;  -59.267;39665.133; 3.08341
 615.92; 1232.600;  -26.233;40196.301; 3.12967
 616.50; 1237.567;  -56.267;40819.234; 3.16530
 617.07; 1286.833;  -35.000;41399.766; 3.19016
 617.65; 1270.800;  -48.600;41697.832; 3.16051
 618.23; 1297.700;  -34.900;41906.500; 3.17729
 618.81; 1297.767;  -32.933;42039.934; 3.16285
 619.39; 1313.033;  -52.900;42198.801; 3.23285
 619.97; 1317.067;  -64.667;42181.367; 3.27068
 620.55; 1344.367;  -75.333;42181.465; 3.35970
 621.13; 1368.900;  -54.433;42200.266; 3.36846
 621.71; 1384.967;  -53.733;42400.934; 3.38879
 622.28; 1385.300;  -42.367;42549.266; 3.35199
 622.86; 1413.667;  -34.767;42676.566; 3.39122
 623.44; 1416.600;  -30.100;42738.168; 3.38265
 624.02; 1402.267;  -59.633;42766.398; 3.41358
 624.60; 1385.433;  -75.500;42844.266; 3.40387
 625.18; 1390.567;  -73.267;42899.602; 3.40641
 625.76; 1409.667;  -64.400;43050.500; 3.41893
 626.33; 1425.467;  -46.600;43107.633; 3.41118
 626.91; 1428.167;  -55.600;43171.434; 3.43250
 627.49; 1444.800;  -44.200;43167.867; 3.44580
 628.07; 1453.933;  -59.700;43207.898; 3.49831
 628.65; 1443.100;  -56.567;43269.766; 3.46133
 629.23; 1420.933;  -68.400;43361.332; 3.42929
 629.80; 1454.400;  -40.000;43487.301; 3.43325
 630.38; 1470.100;  -43.100;43581.832; 3.46866
 630.96; 1479.700;  -40.300;43633.398; 3.48036
 631.54; 1452.633;  -74.200;43648.734; 3.49207
 632.12; 1470.667;  -48.233;43822.301; 3.46223
 632.69; 1484.200;  -51.567;43957.301; 3.48968
 633.27; 1486.900;  -46.667;44037.465; 3.47873
 633.85; 1505.967;  -61.733;44073.168; 3.55206
 634.43; 1515.933;  -54.133;44057.234; 3.55932
 635.01; 1531.167;  -61.967;44090.035; 3.60829
 635.58; 1522.333;  -57.667;44103.832; 3.57778
 636.16; 1535.933;  -61.633;44226.000; 3.60725
 636.74; 1526.933;  -59.867;44349.266; 3.57314
 637.32; 1561.933;  -58.333;44484.465; 3.63755
 637.89; 1646.133;    8.300;44652.566; 3.66863
 638.47; 1639.100;    1.567;44633.801; 3.66895
 639.05; 1624.067;   -2.433;44619.633; 3.64506
 639.63; 1569.700;  -53.267;44597.133; 3.63483
 640.20; 1613.567;  -41.600;44751.434; 3.69514
 640.78; 1605.633;  -56.700;44777.699; 3.70772
 641.36; 1591.567;  -63.233;44880.199; 3.68196
 641.94; 1592.700;  -59.133;44921.434; 3.67233
 642.51; 1624.833;  -42.433;45083.801; 3.69467
 643.09; 1629.233;  -48.067;45187.965; 3.70788
 643.67; 1640.067;  -69.967;45302.934; 3.76884
 644.24; 1650.467;  -74.000;45395.266; 3.79260
 644.82; 1707.067;  -60.467;45432.332; 3.88530
 645.40; 1709.133;  -39.800;45599.465; 3.83208
 645.98; 1741.833;  -22.133;45758.465; 3.85309
 646.55; 1723.267;  -30.433;46006.367; 3.80934
 647.13; 1765.767;  -16.767;46211.133; 3.85597
 647.71; 1728.433;  -47.433;46470.465; 3.81760
 648.28; 1753.267;  -39.133;46822.199; 3.82490
 648.86; 1751.900;  -57.167;47267.266; 3.82269
 649.44; 1818.933;  -31.433;47669.500; 3.87910
 650.01; 1814.833;  -45.000;48048.266; 3.86714
 650.59; 1848.967;  -47.533;48500.301; 3.90646
 651.17; 1854.267;  -57.167;49091.633; 3.88907
 651.74; 1907.033;  -58.500;49606.367; 3.95759
 652.32; 1893.933;  -74.367;50014.066; 3.92965
 652.90; 1919.700;  -81.567;50260.434; 3.97534
 653.47; 1908.200;  -88.800;50348.102; 3.95940
 654.05; 1986.233;  -66.500;50741.801; 4.04015
 654.63; 2085.033;  -63.267;52952.832; 4.05217
 655.20; 2246.633;  -49.667;55767.898; 4.11394
 655.78; 2383.100;  -21.500;58450.133; 4.11242
 656.36; 2402.800;  -33.967;58241.234; 4.18148
 656.93; 2273.133;  -44.633;55434.434; 4.17773
 657.51; 2117.733;  -51.267;51636.168; 4.19638
 658.09; 1967.033;  -42.233;48500.035; 4.13921
 658.66; 1905.933;  -44.867;47402.934; 4.11147
 659.24; 1853.833;  -68.900;46984.934; 4.08624
 659.81; 1876.933;  -67.367;46953.734; 4.13495
 660.39; 1882.167;  -74.567;46860.035; 4.16906
 660.97; 1909.500;  -68.100;46864.234; 4.21373
 661.54; 1897.967;  -91.400;46780.367; 4.24427
 662.12; 1921.600;  -85.533;46797.301; 4.28117
 662.69; 1909.133;  -91.600;46831.699; 4.26384
 663.27; 1908.233;  -62.967;46916.832; 4.19585
 663.85; 1923.167;  -47.333;47119.102; 4.17776
 664.42; 1941.900;  -39.767;47214.102; 4.19366
 665.00; 1972.800;  -44.100;47274.398; 4.26239
 665.57; 1992.333;  -39.267;47315.801; 4.29014
 666.15; 1986.867;  -53.967;47378.035; 4.30265
 666.72; 1995.133;  -64.333;47534.465; 4.32672
 667.30; 1984.500;  -76.900;47654.434; 4.31876
 667.88; 2005.933;  -71.667;47787.602; 4.34106
 668.45; 2018.633;  -61.400;47960.699; 4.33141
 669.03; 2047.200;  -68.300;48197.066; 4.38306
 669.60; 2034.667;  -74.567;48325.234; 4.35794
 670.18; 2065.600;  -59.767;48457.633; 4.38063
 670.75; 2068.400;  -54.467;48520.500; 4.37029
 671.33; 2095.833;  -44.633;48554.367; 4.40434
 671.90; 2098.333;  -37.433;48622.266; 4.38919
 672.48; 2125.333;  -18.267;48600.434; 4.40900
 673.05; 2116.667;  -17.767;48643.465; 4.38631
 673.63; 2102.900;  -43.933;48395.898; 4.43196
 674.20; 2071.200;  -55.433;48009.000; 4.42455
 674.78; 2068.400;  -57.567;47507.801; 4.46957
 675.35; 2048.400;  -41.300;47115.168; 4.43142
 675.93; 2042.633;  -45.767;46861.066; 4.45223
 676.50; 2041.533;  -40.800;46702.434; 4.45483
 677.08; 2047.133;  -53.433;46484.668; 4.51365
 677.65; 2044.400;  -63.133;46217.934; 4.55377
 678.23; 2025.133;  -86.400;45976.434; 4.58403
 678.80; 2020.667;  -83.000;45880.766; 4.57679
 679.38; 2023.700;  -86.500;45808.934; 4.59784
 679.95; 2043.133;  -58.167;45855.934; 4.57659
 680.53; 2041.567;  -65.100;45921.965; 4.58100
 681.10; 2041.000;  -58.333;45973.535; 4.56061
 681.68; 2051.733;  -70.933;46042.234; 4.60317
 682.25; 2057.033;  -81.633;46084.734; 4.63252
 682.83; 2091.733;  -65.500;46335.133; 4.64915
 683.40; 2109.700;  -72.233;46582.266; 4.67679
 683.98; 2148.333;  -56.867;46857.398; 4.70049
 684.55; 2172.100;  -64.733;47068.535; 4.74576
 685.12; 2202.833;  -43.733;47208.398; 4.75442
 685.70; 2192.600;  -55.400;47288.602; 4.74823
 686.27; 2193.267;  -64.033;47355.168; 4.76031
 686.85; 2188.633;  -87.300;47442.332; 4.78845
 687.42; 2233.367;  -72.267;47438.066; 4.85291
 688.00; 2240.133;  -69.100;47373.234; 4.86745
 688.57; 2261.667;  -53.800;47271.266; 4.89269
 689.14; 2266.633;  -26.100;47223.668; 4.85237
 689.72; 2286.900;  -18.600;47038.367; 4.89938
 690.29; 2306.200;   -3.367;46896.965; 4.92441
 690.87; 2277.767;  -43.733;46749.332; 4.96121
 691.44; 2241.300;  -51.300;46590.465; 4.91534
 692.01; 2210.867;  -46.233;46408.398; 4.85872
 692.59; 2221.167;  -27.833;46216.734; 4.86327
 693.16; 2246.867;  -17.767;46056.668; 4.91516
 693.74; 2228.400;  -35.367;45845.035; 4.93406
 694.31; 2223.100;  -57.300;45532.766; 5.00197
 694.88; 2194.100;  -58.200;45309.734; 4.96452
 695.46; 2188.233;  -62.567;45079.266; 4.98606
 696.03; 2173.467;  -61.167;44877.734; 4.97260
 696.60; 2174.333;  -71.900;44695.133; 5.01761
 697.18; 2196.733;  -53.833;44399.234; 5.06279
 697.75; 2204.100;  -40.767;44216.465; 5.07232
 698.32; 2225.700;  -14.400;43968.102; 5.09316
 698.90; 2199.400;  -34.367;43726.168; 5.10452
 699.47; 2157.167;  -56.900;43490.434; 5.08428
 700.04; 2160.267;  -67.667;43279.535; 5.13974
 700.62; 2160.500;  -91.533;43056.832; 5.21928
 701.19; 2178.600;  -69.233;42790.266; 5.24466
 701.76; 2175.433;  -56.967;42525.035; 5.24259
 702.34; 2167.000;  -34.700;42262.066; 5.20536
 702.91; 2182.500;  -36.567;42060.867; 5.27126
 703.48; 2149.767;  -46.900;41831.801; 5.24531
 704.06; 2121.700;  -55.900;41612.266; 5.22605
 704.63; 2105.433;  -59.333;41326.566; 5.23069
 705.20; 2091.100;  -60.633;41140.168; 5.22255
 705.78; 2119.533;  -52.133;41030.934; 5.28604
 706.35; 2099.500;  -50.133;40909.266; 5.24821
 706.92; 2098.967;  -59.267;40672.766; 5.29861
 707.49; 2091.200;  -41.567;40468.898; 5.26473
 708.07; 2116.000;  -16.067;40221.633; 5.29868
 708.64; 2144.400;   30.000;39999.000; 5.29010
 709.21; 2150.133;   24.967;39720.867; 5.35362
 709.78; 2113.533;   -0.067;39480.000; 5.35359
 710.36; 2073.733;  -50.000;39237.000; 5.40569
 710.93; 2021.400;  -61.700;39042.934; 5.32699
 711.50; 2008.967;  -66.800;38773.867; 5.34431
 712.07; 1975.367;  -75.267;38572.398; 5.30597
 712.65; 1992.867;  -86.533;38339.102; 5.41149
 713.22; 1991.800;  -88.967;38214.832; 5.43227
 713.79; 1989.000;  -78.600;38002.102; 5.42952
 714.36; 1967.200;  -87.233;37764.801; 5.42754
 714.94; 1969.867;  -76.100;37536.168; 5.43963
 715.51; 1957.067;  -80.600;37272.234; 5.45519
 716.08; 1948.700;  -73.200;37140.766; 5.43318
 716.65; 1956.933;  -55.800;36909.434; 5.44494
 717.22; 1972.633;  -38.700;36769.699; 5.46433
 717.80; 1979.167;  -11.800;36600.867; 5.43792
 718.37; 1957.400;  -11.233;36469.266; 5.39640
 718.94; 1958.833;   -1.067;36256.668; 5.40547
 719.51; 1943.433;  -16.633;35960.734; 5.44805
 720.08; 1919.767;  -40.700;35739.332; 5.47922
 720.66; 1883.733;  -61.800;35499.168; 5.47098
 721.23; 1878.867;  -64.267;35320.199; 5.49149
 721.80; 1864.300;  -61.867;35049.102; 5.48594
 722.37; 1864.433;  -59.000;34879.465; 5.50520
 722.94; 1855.900;  -59.600;34641.332; 5.52002
 723.52; 1855.300;  -68.733;34446.566; 5.57444
 724.09; 1861.933;  -73.933;34213.066; 5.64607
 724.66; 1834.867;  -78.933;33966.168; 5.62137
 725.23; 1866.900;  -57.900;33801.035; 5.68476
 725.80; 1844.667;  -53.700;33579.000; 5.64441
 726.37; 1854.533;  -53.200;33408.035; 5.70132
 726.94; 1799.633;  -62.433;33131.000; 5.60974
 727.52; 1787.233;  -80.133;32984.066; 5.64770
 728.09; 1778.433;  -81.467;32788.168; 5.65841
 728.66; 1788.067;  -84.500;32571.232; 5.73427
 729.23; 1762.367;  -81.900;32352.166; 5.68620
 729.80; 1762.867;  -74.033;32252.000; 5.68242
 730.37; 1755.167;  -82.400;32158.133; 5.69955
 730.94; 1779.367;  -69.767;31983.100; 5.76901
 731.51; 1801.567;  -56.700;31730.934; 5.84588
 732.09; 1793.900;  -59.900;31464.133; 5.88059
 732.66; 1806.733;  -39.800;31334.699; 5.88546
 733.23; 1775.467;  -54.600;31105.967; 5.87302
 733.80; 1752.133;  -44.633;30937.633; 5.79934
 734.37; 1748.567;  -51.767;30674.834; 5.85920
 734.94; 1773.800;  -24.333;30532.666; 5.88452
 735.51; 1796.067;  -11.800;30351.199; 5.95418
 736.08; 1764.500;  -18.867;30170.367; 5.90729
 736.65; 1710.067;  -43.667;29871.400; 5.86237
 737.22; 1725.333;  -42.867;29615.066; 5.96198
 737.79; 1715.567;  -54.033;29347.268; 6.01878
 738.36; 1721.367;  -53.967;29166.566; 6.07564
 738.93; 1682.500;  -75.067;28972.334; 6.05068
 739.51; 1667.633;  -78.333;28743.801; 6.05773
 740.08; 1662.600;  -82.033;28509.934; 6.10183
 740.65; 1655.667;  -66.533;28275.500; 6.07649
 741.22; 1665.200;  -43.800;28104.367; 6.07144
 741.79; 1637.500;  -33.033;27939.732; 5.97200
 742.36; 1622.467;  -47.833;27788.367; 6.00046
 742.93; 1590.067;  -69.300;27607.732; 5.99546
 743.50; 1573.500;  -82.267;27419.801; 6.02052
 744.07; 1550.333;  -77.400;27157.566; 5.97663
 744.64; 1557.767;  -76.167;26922.133; 6.05199
 745.21; 1556.000;  -76.433;26692.232; 6.09830
 745.78; 1573.000;  -46.767;26631.166; 6.07156
 746.35; 1559.667;  -34.533;26489.334; 6.01044
 746.92; 1533.867;  -31.300;26318.666; 5.93992
 747.49; 1515.300;  -50.067;26074.199; 5.99200
 748.06; 1508.167;  -54.633;25908.434; 6.01932
 748.63; 1500.967;  -66.300;25699.699; 6.08269
 749.20; 1511.033;  -65.667;25530.867; 6.15982
 749.77; 1554.367;  -32.600;25340.232; 6.25459
 750.34; 1608.100;    2.233;25214.033; 6.36950
 750.91; 1587.800;   -7.900;25055.268; 6.36671
 751.48; 1560.933;  -21.733;24924.133; 6.34440
 752.05; 1509.767;  -49.967;24696.967; 6.30273
 752.62; 1492.467;  -49.733;24476.434; 6.28798
 753.18; 1435.467;  -84.533;24222.467; 6.25334
 753.75; 1441.467;  -79.333;24157.367; 6.27478
 754.32; 1422.267;  -78.467;24041.566; 6.22194
 754.89; 1425.967;  -67.100;23936.467; 6.22019
 755.46; 1401.233;  -74.967;23736.199; 6.19961
 756.03; 1426.167;  -60.433;23602.400; 6.28243
 756.60; 1417.033;  -60.233;23443.166; 6.28533
 757.17; 1455.800;  -21.867;23386.934; 6.31244
 757.74; 1430.733;  -50.233;23163.666; 6.37965
 758.31; 1427.767;  -55.767;22955.666; 6.44694
 758.88; 1400.667;  -63.900;22743.633; 6.42142
 759.45; 1395.500;  -49.667;22661.232; 6.36332
 760.02; 1391.800;  -44.567;22631.199; 6.33437
 760.58; 1401.133;  -49.500;22493.967; 6.43483
 761.15; 1395.133;  -56.267;22299.334; 6.49233
 761.72; 1388.700;  -67.067;22079.133; 6.57344
 762.29; 1379.967;  -72.300;21937.301; 6.59833
 762.86; 1357.967;  -77.667;21804.666; 6.56070
 763.43; 1374.267;  -52.500;21692.500; 6.56136
 764.00; 1353.267;  -60.867;21573.166; 6.53661
 764.57; 1352.033;  -42.867;21461.166; 6.48669
 765.13; 1326.100;  -63.567;21345.367; 6.49106
 765.70; 1311.100;  -55.600;21080.367; 6.46623
 766.27; 1321.733;  -71.367;20932.000; 6.63275
 766.84; 1322.900;  -67.867;20776.434; 6.67217
 767.41; 1318.067;  -75.767;20758.467; 6.69011
 767.98; 1347.467;  -37.033;20667.334; 6.68700
 768.55; 1337.600;  -23.167;20545.100; 6.61585
 769.11; 1338.633;  -28.400;20356.268; 6.70618
 769.68; 1335.933;  -24.367;20299.467; 6.69313
 770.25; 1349.067;  -10.467;20205.967; 6.72489
 770.82; 1350.967;    3.133;20152.699; 6.68914
 771.39; 1298.433;  -30.767;19996.000; 6.63712
 771.96; 1275.867;  -58.700;19790.500; 6.72353
 772.52; 1274.733;  -63.867;19621.301; 6.80004
 773.09; 1281.967;  -51.467;19427.268; 6.84559
 773.66; 1288.000;  -31.267;19358.199; 6.80404
 774.23; 1257.867;  -38.833;19243.199; 6.72491
 774.80; 1224.800;  -65.067;19133.699; 6.71849
 775.36; 1198.600;  -92.133;18980.934; 6.76731
 775.93; 1182.267;  -93.700;18828.400; 6.74326
 776.50; 1175.067;  -85.033;18700.000; 6.70800
 777.07; 1169.967;  -80.800;18605.066; 6.69365
 777.63; 1167.800;  -78.733;18511.199; 6.70542
 778.20; 1202.000;  -68.200;18484.768; 6.84634
 778.77; 1191.667;  -63.433;18376.100; 6.80657
 779.34; 1214.633;  -64.833;18297.633; 6.96784
 779.90; 1227.067;  -49.633;18158.768; 7.01160
 780.47; 1241.433;  -45.333;18070.033; 7.10318
 781.04; 1218.067;  -60.767;17942.334; 7.10341
 781.61; 1165.800;  -84.367;17806.834; 6.98761
 782.17; 1163.833;  -94.867;17706.934; 7.07063
 782.74; 1146.433;  -93.633;17638.100; 6.99349
 783.31; 1157.167;  -91.200;17594.566; 7.05859
 783.88; 1158.667;  -70.600;17556.301; 6.97381
 784.44; 1177.300;  -53.633;17510.934; 7.00805
 785.01; 1160.400;  -65.667;17362.699; 7.03489
 785.58; 1173.300;  -55.633;17259.334; 7.09752
 786.14; 1153.767;  -63.500;17103.934; 7.09056
 786.71; 1170.367;  -53.767;17012.232; 7.17294
 787.28; 1132.600;  -80.667;16909.467; 7.14101
 787.85; 1162.233;  -59.733;16877.801; 7.21455
 788.41; 1153.100;  -59.733;16826.434; 7.18241
 788.98; 1176.967;  -43.700;16727.699; 7.27826
 789.55; 1164.400;  -50.933;16584.033; 7.30590
 790.11; 1160.367;  -44.900;16466.268; 7.29971
 790.68; 1154.167;  -52.233;16401.600; 7.33203
 791.25; 1135.400;  -61.233;16333.033; 7.29910
 791.81; 1128.133;  -62.500;16213.800; 7.31513
 792.38; 1099.900;  -72.100;16079.200; 7.25638
 792.95; 1105.133;  -71.700;16055.233; 7.29732
 793.51; 1091.333;  -90.400;16018.033; 7.33612
 794.08; 1099.567;  -90.467;15948.967; 7.41942
 794.65; 1102.500;  -81.600;15818.833; 7.44697
 795.21; 1101.600;  -79.400;15748.533; 7.46149
 795.78; 1114.933;  -69.300;15702.600; 7.50850
 796.34; 1090.600;  -77.067;15579.333; 7.45808
 796.91; 1085.233;  -81.533;15493.366; 7.49133
 797.48; 1049.867;  -90.267;15357.233; 7.38070
 798.04; 1051.200;  -95.567;15280.033; 7.45835
 798.61; 1049.833;  -77.467;15177.167; 7.38989
 799.18; 1070.200;  -49.567;15133.800; 7.37496
 799.74; 1059.867;  -51.033;15114.900; 7.32497
 800.31; 1075.633;  -35.633;15062.600; 7.36024
 800.87; 1066.300;  -47.233;15056.434; 7.37260
 801.44; 1091.800;  -31.500;14953.500; 7.49616
 802.00; 1061.267;  -56.000;14900.533; 7.47009
 802.57; 1054.967;  -75.833;14778.700; 7.61249
 803.14; 1048.233;  -80.333;14732.866; 7.61866
 803.70; 1061.767;  -75.300;14623.667; 7.73569
 804.27; 1032.533;  -86.333;14531.967; 7.65388
 804.83; 1021.900;  -90.400;14491.533; 7.62793
 805.40; 1000.767;  -91.733;14439.167; 7.51846
 805.96; 1021.700;  -79.100;14343.833; 7.63229
 806.53; 1001.700;  -77.700;14232.267; 7.54299
 807.10; 1057.600;  -44.633;14245.400; 7.71330
 807.66; 1062.767;  -34.133;14275.533; 7.66545
 808.23; 1073.533;  -40.100;14237.033; 7.80012
 808.79; 1039.867;  -74.467;14143.667; 7.83741
 809.36; 1025.267;  -86.400;14043.100; 7.86770
 809.92; 1023.500;  -79.767;14083.934; 7.78940
 810.49; 1045.167;  -64.967;14070.900; 7.85331
 811.05; 1051.700;  -59.267;14096.566; 7.84812
 811.62; 1068.033;  -59.500;14002.233; 8.01845
 812.18; 1046.367;  -58.467;14018.833; 7.84833
 812.75; 1067.233;  -40.433;14017.566; 7.87926
 813.31; 1060.200;  -47.800;14019.267; 7.87655
 813.88; 1057.700;  -58.600;13963.866; 7.96080
 814.44; 1055.067;  -48.500;13926.233; 7.89687
 815.01; 1061.967;  -38.467;13936.733; 7.87419
 815.57; 1077.467;  -29.100;13915.467; 7.93547
 816.14; 1064.733;  -69.433;13832.267; 8.15847
 816.70; 1062.533;  -61.767;13733.300; 8.15002
 817.27; 1040.767;  -74.733;13659.200; 8.12222
 817.83; 1018.367;  -73.167;13602.267; 7.98171
 818.40; 1018.600;  -89.633;13544.400; 8.12843
 818.96; 1005.367;  -93.833;13430.833; 8.12737
 819.53; 1002.867;  -86.967;13349.434; 8.11105
 820.09;  990.233;  -76.167;13310.200; 7.96631
 820.65; 1011.933;  -61.467;13282.900; 8.04384
 821.22; 1029.100;  -57.500;13223.900; 8.18137
 821.78; 1034.600;  -71.933;13125.366; 8.38454
 822.35; 1016.467;  -88.000;13026.200; 8.42191
 822.91; 1047.600;  -55.433;12981.566; 8.46079
 823.48; 1036.533;  -40.467;12905.366; 8.31928
 824.04; 1024.700;  -48.133;12837.033; 8.32611
 824.60;  993.900;  -71.767;12760.700; 8.30446
 825.17; 1004.033;  -71.833;12686.533; 8.43264
 825.73; 1018.600;  -58.233;12631.000; 8.48620
 826.30;  996.767;  -78.400;12565.434; 8.50349
 826.86;  990.333;  -73.400;12554.233; 8.42385
 827.42; 1007.733;  -40.333;12534.467; 8.33466
 827.99; 1023.133;  -37.167;12482.900; 8.46880
 828.55; 1013.100;  -54.333;12391.833; 8.57640
 829.12;  975.867;  -96.700;12296.134; 8.65473
 829.68;  977.867;  -86.100;12247.667; 8.62645
 830.24;  975.667;  -83.533;12148.566; 8.65918
 830.81;  994.900;  -55.400;12163.366; 8.59579
 831.37; 1006.633;  -36.500;12113.600; 8.58539
 831.93; 1008.333;  -21.133;12174.833; 8.44104
 832.50;  994.333;  -45.667;12130.634; 8.54118
 833.06;  966.333;  -76.300;12132.066; 8.54032
 833.62;  961.600;  -79.467;12091.434; 8.55374
 834.19;  975.800;  -49.967;12052.167; 8.47592
 834.75;  994.433;  -24.133;11993.400; 8.47567
 835.31;  997.000;  -34.467;11910.000; 8.63552
 835.88; 1033.167;  -22.867;11883.833; 8.86924
 836.44; 1051.667;  -17.600;11856.900; 9.00473
 837.00; 1054.200;    0.667;11865.967; 8.87911
 837.57; 1026.067;  -21.567;11837.634; 8.83393
 838.13;  995.200;  -45.900;11822.267; 8.77221
 838.69;  974.967;  -77.833;11778.733; 8.87947
 839.26;  963.467;  -82.167;11725.733; 8.85537
 839.82;  976.767;  -61.567;11619.533; 8.88900
 840.38;  980.000;  -53.233;11552.900; 8.90248
 840.95;  983.000;  -61.267;11489.533; 9.04064
 841.51;  982.767;  -65.233;11525.634; 9.04160
 842.07;  985.367;  -65.133;11484.167; 9.09579
 842.63;  967.933;  -73.467;11456.566; 9.03206
 843.20;  967.467;  -83.833;11416.434; 9.14153
 843.76; 1004.733;  -57.400;11405.167; 9.26610
 844.32; 1004.567;  -55.600;11401.267; 9.25355
 844.88; 1033.800;  -26.667;11403.167; 9.27806
 845.45;  991.867;  -52.667;11389.333; 9.12894
 846.01; 1004.900;  -41.200;11347.566; 9.18537
 846.57;  968.433;  -73.700;11316.866; 9.14909
 847.13;  991.733;  -74.233;11310.634; 9.36301
 847.70;  998.233;  -55.333;11343.100; 9.24308
 848.26; 1018.467;  -34.767;11330.900; 9.26680
 848.82; 1027.733;  -14.000;11278.833; 9.22473
 849.38; 1027.833;  -23.200;11245.267; 9.32721
 849.95; 1019.467;  -31.300;11209.134; 9.34810
 850.51;  978.567;  -63.100;11195.000; 9.25260
 851.07;  964.267;  -84.033;11169.900; 9.31497
 851.63;  955.167;  -88.200;11088.267; 9.33539
 852.19;  975.267;  -69.533;11070.467; 9.37881
 852.76;  972.600;  -76.200;10999.467; 9.46941
 853.32;  991.767;  -64.300;11070.800; 9.48412
 853.88;  984.433;  -73.667;11066.134; 9.49837
 854.44; 1026.533;  -29.433;11124.667; 9.46707
 855.00; 1004.367;  -43.200;11063.400; 9.43193
 855.56; 1034.333;  -26.800;11062.200; 9.56924
 856.13;  990.133;  -67.200;11017.300; 9.53885
 856.69; 1003.667;  -49.867;10999.767; 9.53455
 857.25;  985.300;  -60.633;10993.767; 9.46169
 857.81; 1006.100;  -52.067;10949.366; 9.61844
 858.37;  985.300;  -71.333;10945.866; 9.59076
 858.93;  985.800;  -67.833;10870.767; 9.63225
 859.50;  979.233;  -63.567;10850.934; 9.55426
 860.06;  985.567;  -58.000;10816.533; 9.59643
 860.62;  982.867;  -66.000;10831.667; 9.62469
 861.18;  966.767;  -90.100;10824.000; 9.68350
 861.74;  957.633;  -95.600;10790.800; 9.67476
 862.30;  956.367;  -87.267;10775.833; 9.60714
 862.86;  980.867;  -69.567;10783.667; 9.67853
 863.42;  982.067;  -83.767;10777.434; 9.81322
 863.98;  985.400;  -79.833;10723.033; 9.86065
 864.55;  966.467;  -70.833;10680.066; 9.64849
 865.11;  982.633;  -43.033;10707.667; 9.54046
 865.67;  985.633;  -51.233;10688.934; 9.65410
 866.23; 1008.267;  -36.733;10718.233; 9.71644
 866.79; 1002.033;  -53.633;10646.467; 9.86595
 867.35; 1011.167;  -50.900;10632.300; 9.94147
 867.91;  984.067;  -69.067;10537.267; 9.92929
 868.47;  983.433;  -61.100;10510.800; 9.88028
 869.03;  968.800;  -80.333;10503.900; 9.91223
 869.59;  995.800;  -78.700;10520.733;10.13733
 870.15; 1008.467;  -86.667;10499.267;10.34518
 870.71; 1026.133;  -61.067;10467.667;10.32603
 871.27; 1037.733;  -62.733;10474.800;10.44330
 871.84; 1017.433;  -73.967;10453.533;10.36713
 872.40;  997.367;  -86.267;10459.533;10.27550
 872.96;  987.367;  -73.300;10381.400;10.14536
 873.52; 1007.767;  -58.333;10362.600;10.23037
 874.08; 1032.967;  -31.867;10304.700;10.30162
 874.64; 1033.600;  -39.533;10288.967;10.39002
 875.20; 1015.600;  -47.667;10226.233;10.34920
 875.76; 1019.000;  -49.567;10199.500;10.42599
 876.32;  978.067;  -74.700;10176.634;10.26956
 876.88;  980.833;  -80.200;10142.066;10.37963
 877.44;  955.400; -109.800;10138.533;10.39389
 878.00; 1011.267;  -77.867;10121.833;10.67809
 878.56; 1035.433;  -44.700;10204.200;10.53902
 879.12; 1040.967;  -47.333;10192.467;10.62814
 879.68; 1029.833;  -52.200;10202.667;10.55141
 880.24; 1020.900;  -75.867;10175.500;10.69874
 880.80; 1009.500;  -75.333;10169.767;10.58880
 881.36;  994.133;  -90.833;10201.467;10.54154
 881.92;  995.833;  -89.833;10219.500;10.53091
 882.48; 1020.533;  -72.367;10306.733;10.52981
 883.03; 1027.700;  -61.133;10307.267;10.50146
 883.59; 1044.500;  -53.367;10329.134;10.57420
 884.15; 1068.933;  -48.567;10339.233;10.75781
 884.71; 1102.333;  -37.333;10393.400;10.92605
 885.27; 1099.000;  -53.500;10412.167;11.01220
 885.83; 1090.900;  -76.700;10436.333;11.10621
 886.39; 1099.700;  -60.400;10504.066;10.98115
 886.95; 1136.400;  -22.100;10635.300;10.87038
 887.51; 1128.333;  -21.267;10702.600;10.72001
 888.07; 1101.867;  -62.367;10731.733;10.78583
 888.63; 1080.833;  -86.367;10733.300;10.78776
 889.19; 1103.267;  -74.733;10755.700;10.87676
 889.75; 1108.100;  -69.633;10800.267;10.83481
 890.30; 1132.900;  -58.833;10872.333;10.90216
 890.86; 1168.300;  -31.033;10968.300;10.90369
 891.42; 1170.933;  -36.067;11007.533;10.92941
 891.98; 1143.133;  -60.667;10999.066;10.88453
 892.54; 1133.233;  -66.100;10966.566;10.87075
 893.10; 1157.033;  -56.933;10972.000;11.00711
 893.66; 1190.733;  -43.233;10978.400;11.19586
 894.22; 1205.700;  -43.033;10958.167;11.35088
 894.77; 1200.533;  -58.433;10910.434;11.47764
 895.33; 1215.333;  -38.633;10916.833;11.44604
 895.89; 1184.700;  -68.333;10927.500;11.39553
 896.45; 1181.833;  -52.200;10922.400;11.24445
 897.01; 1150.733;  -91.400;10822.866;11.38082
 897.57; 1143.467;  -98.867;10720.934;11.48204
 898.13; 1154.200;  -96.867;10649.900;11.64133
 898.68; 1153.200;  -80.333;10650.767;11.49494
 899.24; 1158.633;  -79.933;10608.333;11.58810
 899.80; 1132.667;  -95.700;10570.634;11.51630
 900.36; 1125.067; -103.300;10505.066;11.57923
 900.92; 1134.333;  -86.467;10493.700;11.53857
 901.47; 1155.367;  -83.267;10458.634;11.74962
 902.03; 1145.600;  -89.000;10394.167;11.77698
 902.59; 1143.433;  -86.000;10309.300;11.82682
 903.15; 1146.067;  -69.767;10233.366;11.80062
 903.71; 1139.333;  -73.967;10149.866;11.86737
 904.26; 1116.133;  -96.300;10118.833;11.86899
 904.82; 1087.433; -108.600;10049.400;11.77430
 905.38; 1094.400;  -96.000;10034.366;11.75081
 905.94; 1108.167;  -73.033; 9972.733;11.75819
 906.49; 1106.233;  -66.333; 9935.366;11.72367
 907.05; 1106.467;  -76.900; 9857.033;11.91237
 907.61; 1106.233;  -73.467; 9821.800;11.92186
 908.17; 1103.633;  -89.100; 9774.267;12.09256
 908.72; 1118.600;  -58.433; 9734.467;12.01925
 909.28; 1149.300;  -39.233; 9676.900;12.23258
 909.84; 1149.533;  -35.000; 9660.733;12.21706
 910.40; 1167.933;  -22.333; 9696.033;12.24760
 910.95; 1143.767;  -39.800; 9673.667;12.18480
 911.51; 1171.467;   -9.267; 9623.134;12.25793
 912.07; 1111.100;  -64.567; 9497.233;12.29545
 912.63; 1114.033;  -63.900; 9455.233;12.37438
 913.18; 1097.933;  -84.200; 9381.467;12.48864
 913.74; 1121.333;  -50.433; 9382.066;12.42265
 914.30; 1106.833;  -60.033; 9325.200;12.43301
 914.85; 1103.200;  -49.933; 9287.733;12.34927
 915.41; 1096.133;  -58.767; 9221.434;12.44477
 915.97; 1102.167;  -59.367; 9191.700;12.55567
 916.52; 1087.267;  -70.767; 9185.233;12.51116
 917.08; 1089.200;  -68.167; 9184.434;12.50856
 917.64; 1064.100;  -78.167; 9115.934;12.42391
 918.19; 1074.267;  -69.400; 9087.100;12.49022
 918.75; 1065.700;  -64.400; 9017.066;12.44403
 919.31; 1085.567;  -32.233; 9027.533;12.33807
 919.86; 1109.567;  -29.967; 8973.434;12.65670
 920.42; 1128.700;  -22.433; 8945.100;12.83668
 920.98; 1105.433;  -42.733; 8900.400;12.83853
 921.53; 1066.833;  -63.633; 8839.100;12.69797
 922.09; 1023.800; -103.500; 8769.700;12.70455
 922.65; 1029.033;  -95.500; 8749.167;12.71425
 923.20; 1039.167;  -85.433; 8702.667;12.79685
 923.76; 1071.300;  -71.533; 8646.000;13.10960
 924.32; 1070.800;  -74.700; 8567.900;13.25411
 924.87; 1056.167;  -70.233; 8524.767;13.10529
 925.43; 1038.967;  -60.733; 8511.434;12.82873
 925.98; 1021.867;  -69.533; 8444.434;12.81894
 926.54;  990.300;  -97.333; 8406.000;12.79067
 927.10; 1004.767;  -92.133; 8363.200;12.97288
 927.65;  996.567;  -89.000; 8353.866;12.85780
 928.21; 1020.767;  -68.800; 8302.300;13.01581
 928.76; 1006.100;  -76.100; 8239.134;13.01467
 929.32; 1010.900;  -83.867; 8156.933;13.28471
 929.87; 1020.033;  -67.533; 8119.800;13.28353
 930.43; 1013.233;  -65.433; 8100.267;13.20973
 930.99; 1008.800;  -50.833; 8066.200;13.05444
 931.54; 1013.900;  -58.000; 8053.733;13.21419
 932.10; 1016.733;  -47.767; 8006.233;13.21703
 932.65; 1029.567;  -46.833; 7970.633;13.42569
 933.21; 1018.833;  -44.567; 7930.233;13.33450
 933.76; 1031.967;  -18.267; 7925.400;13.22101
 934.32; 1017.667;  -27.400; 7901.367;13.18070
 934.87;  999.300;  -40.967; 7826.367;13.22261
 935.43;  974.700;  -75.733; 7727.933;13.46077
 935.98;  958.867;  -80.233; 7684.633;13.38207
 936.54;  967.933;  -70.933; 7632.833;13.48518
 937.09;  961.767;  -75.067; 7611.900;13.48820
 937.65;  980.967;  -62.000; 7568.067;13.66917
 938.21;  978.700;  -59.367; 7563.867;13.61714
 938.76;  951.633;  -73.833; 7541.400;13.46599
 939.31;  948.700;  -68.000; 7501.500;13.43153
 939.87;  954.800;  -78.067; 7455.000;13.71110
 940.42;  976.700;  -56.733; 7404.167;13.85132
 940.98;  961.100;  -73.233; 7341.167;13.95033
 941.53;  970.767;  -44.000; 7320.933;13.77836
 942.09;  976.033;  -39.533; 7267.533;13.89842
 942.64;  955.033;  -41.200; 7238.600;13.68490
 943.20;  911.867;  -78.433; 7124.833;13.74793
 943.75;  894.633;  -96.400; 7045.333;13.87665
 944.31;  924.933;  -77.200; 6997.067;14.16590
 944.86;  939.000;  -64.667; 6981.367;14.24442
 945.42;  955.833;  -36.367; 7007.067;14.08688
 945.97;  944.533;  -41.167; 6973.300;14.05239
 946.52;  955.933;  -47.567; 6924.233;14.39370
 947.08;  946.967;  -73.400; 6842.533;14.75385
 947.63;  955.300;  -53.400; 6831.033;14.65190
 948.19;  932.833;  -59.300; 6836.933;14.38660
 948.74;  907.867;  -61.433; 6789.367;14.14871
 949.30;  872.500; -108.867; 6662.167;14.49360
 949.85;  865.867; -109.167; 6580.400;14.57543
 950.40;  896.467;  -99.233; 6566.833;14.93684
 950.96;  896.433;  -91.633; 6574.867;14.82137
 951.51;  909.767;  -74.800; 6554.033;14.85279
 952.07;  873.667;  -67.100; 6506.700;14.31085
 952.62;  876.500;  -60.100; 6477.433;14.32650
 953.17;  860.900;  -67.967; 6456.300;14.23711
 953.73;  857.533;  -76.400; 6431.467;14.35084
 954.28;  837.833;  -98.667; 6333.200;14.56031
 954.83;  844.233;  -81.633; 6278.767;14.55674
 955.39;  859.133;  -69.967; 6227.533;14.75347
 955.94;  877.033;  -48.467; 6203.867;14.80247
 956.50;  875.533;  -53.667; 6142.967;14.99524
 957.05;  861.033;  -80.033; 6058.067;15.33156
 957.60;  874.033;  -57.567; 6042.300;15.27247
 958.16;  877.767;  -64.633; 6059.967;15.38713
 958.71;  870.233;  -58.433; 6040.700;15.22621
 959.26;  847.567;  -73.433; 5992.867;15.18224
 959.82;  829.733;  -63.500; 5904.300;14.96755
 960.37;  815.067;  -72.133; 5811.500;15.07912
 960.92;  789.733;  -82.633; 5750.467;14.95546
 961.47;  800.100;  -83.867; 5663.733;15.37975
 962.03;  809.467;  -76.933; 5669.967;15.42397
 962.58;  825.033;  -77.000; 5645.467;15.76302
 963.13;  811.900;  -83.833; 5642.000;15.64372
 963.69;  792.133;  -94.100; 5581.767;15.61406
 964.24;  774.700;  -98.733; 5517.300;15.55250
 964.79;  751.433; -106.200; 5443.033;15.45499
 965.34;  754.367;  -84.567; 5430.900;15.21056
 965.90;  779.767;  -49.900; 5417.433;15.17498
 966.45;  799.167;  -28.233; 5391.400;15.26672
 967.00;  821.300;  -29.533; 5330.000;15.87514
 967.56;  786.633;  -63.700; 5250.767;16.00035
 968.11;  794.167;  -63.067; 5222.200;16.21930
 968.66;  759.400;  -73.967; 5178.433;15.86640
 969.21;  758.133;  -79.200; 5129.267;16.07639
 969.76;  718.833; -101.833; 5060.467;15.89731
 970.32;  741.867;  -85.100; 5032.667;16.15874
 970.87;  764.300;  -53.133; 5014.867;16.12931
 971.42;  780.300;  -36.667; 5007.300;16.19691
 971.97;  736.000;  -60.000; 4945.033;15.90399
 972.53;  714.933;  -72.700; 4922.533;15.76770
 973.08;  680.133;  -91.867; 4835.500;15.66760
 973.63;  701.133;  -78.767; 4783.367;16.04028
 974.18;  678.233;  -97.067; 4718.633;16.09942
 974.73;  683.467;  -98.767; 4696.133;16.31386
 975.29;  684.367;  -85.700; 4662.100;16.21944
 975.84;  699.567;  -60.167; 4625.467;16.21410
 976.39;  708.767;  -46.000; 4584.200;16.30095
 976.94;  688.300;  -69.700; 4548.433;16.41356
 977.49;  683.933;  -83.400; 4506.633;16.71738
 978.04;  673.567;  -82.700; 4450.333;16.68346
 978.60;  678.500;  -72.633; 4381.733;16.86285
 979.15;  677.567;  -76.300; 4341.167;17.06559
 979.70;  655.900;  -88.733; 4320.233;16.88907
 980.25;  645.033;  -77.833; 4276.600;16.60071
 980.80;  613.200;  -83.033; 4204.867;16.23716
 981.35;  633.400;  -57.033; 4192.233;16.24829
 981.91;  616.233;  -78.167; 4155.300;16.40263
 982.46;  653.700;  -48.133; 4151.433;16.71204
 983.01;  631.800;  -49.067; 4078.167;16.49693
 983.56;  624.767;  -54.967; 4041.100;16.59478
 984.11;  600.433;  -65.167; 3999.200;16.37648
 984.66;  590.333;  -96.433; 3951.000;16.96795
 985.21;  604.133;  -73.733; 3944.967;16.86781
 985.76;  604.433;  -72.700; 3908.667;17.00756
 986.31;  606.800;  -61.767; 3870.333;17.00279
 986.87;  613.633;  -57.633; 3830.433;17.26479
 987.42;  608.333;  -66.133; 3783.433;17.52059
 987.97;  598.967;  -73.167; 3723.367;17.70387
 988.52;  586.267;  -76.833; 3664.900;17.72173
 989.07;  569.300;  -94.533; 3631.867;17.81433
 989.62;  566.933;  -77.567; 3615.867;17.44989
 990.17;  550.167;  -85.767; 3588.067;17.30980
 990.72;  548.567;  -68.000; 3545.733;17.06176
 991.27;  559.667;  -65.700; 3526.933;17.40692
 991.82;  558.900;  -63.033; 3483.933;17.53423
 992.37;  565.633;  -55.133; 3454.800;17.68600
 992.92;  544.067;  -72.600; 3416.667;17.67324
 993.47;  560.600;  -57.900; 3400.333;17.88485
 994.02;  548.900;  -68.333; 3334.267;18.14005
 994.57;  574.333;  -48.367; 3290.100;18.65227
 995.12;  560.433;  -54.433; 3228.767;18.72766
 995.67;  551.700;  -54.533; 3200.200;18.62621
 996.22;  518.500;  -60.033; 3155.600;17.99127
 996.77;  501.567;  -71.167; 3123.833;17.92593
 997.32;  485.333;  -68.433; 3082.500;17.57469
 997.87;  477.900;  -80.133; 3030.467;17.93973
 998.42;  453.967;  -89.000; 2953.167;17.84802
 998.97;  472.867;  -83.900; 2927.400;18.48925
 999.52;  483.800;  -65.433; 2912.533;18.44323
1000.07;  503.133;  -48.067; 2906.100;18.65839
1000.62;  481.933;  -57.467; 2866.300;18.44880
1001.17;  462.200;  -65.400; 2814.367;18.32093
1001.72;  438.000;  -72.600; 2783.133;17.87982
1002.27;  431.467;  -75.467; 2758.767;17.88608
1002.82;  413.767;  -96.200; 2703.300;18.21635
1003.37;  425.700;  -93.200; 2670.400;18.77623
1003.92;  420.833;  -93.000; 2592.300;19.13504
1004.47;  435.767;  -68.800; 2606.267;18.86184
1005.02;  431.167;  -51.900; 2573.833;18.39740
1005.57;  449.467;  -30.867; 2586.933;18.34874
1006.12;  426.767;  -44.067; 2506.833;18.45754
1006.67;  400.100;  -74.967; 2438.167;18.90336
1007.22;  356.333; -106.200; 2356.200;18.78384
1007.76;  346.367; -112.133; 2342.667;18.67769
1008.31;  354.133;  -98.333; 2323.533;18.68256
1008.86;  368.100;  -83.267; 2312.133;18.84306
1009.41;  399.733;  -50.433; 2303.067;19.12754
1009.96;  387.233;  -65.367; 2258.667;19.47476
1010.51;  356.967;  -79.300; 2191.833;19.20921
1011.06;  310.167; -117.733; 2086.167;19.41558
1011.61;  312.000; -107.367; 2060.033;19.34883
1012.16;  298.733; -119.400; 2040.333;19.36041
1012.70;  315.567;  -87.033; 2043.267;18.89875
1013.25;  302.633;  -75.967; 1998.433;18.25106
1013.80;  321.833;  -54.867; 1963.933;18.65960
1014.35;  298.167;  -85.267; 1897.200;19.34122
1014.90;  300.067;  -92.800; 1886.967;19.84409
1015.45;  345.067;  -48.667; 1907.000;20.13295
1016.00;  369.267;  -20.267; 1921.500;20.06077
1016.54;  362.500;  -18.800; 1889.633;19.97974
1017.09;  296.033;  -65.300; 1831.000;19.05465
1017.64;  286.733;  -81.133; 1817.967;19.37058
1018.19;  286.767;  -94.667; 1849.933;19.61500
1018.74;  320.300;  -74.200; 1904.600;19.93632
1019.28;  329.367;  -76.733; 1943.567;20.10098
1019.83;  357.900;  -55.000; 1976.033;20.32955
1020.38;  349.600;  -68.833; 1978.267;20.44030
1020.93;  329.533;  -84.867; 1960.667;20.25878
1021.48;  332.067;  -84.100; 1974.100;20.21993
1022.02;  326.467;  -87.700; 1965.467;20.17209
1022.57;  326.900;  -76.833; 1976.467;19.66266
1023.12;  313.867;  -86.167; 1917.500;19.96506
1023.67;  323.200;  -77.000; 1912.467;20.11594
1024.21;  331.200;  -71.767; 1861.167;20.84742
1024.76;  322.767;  -71.900; 1842.667;20.61389
1025.31;  321.733;  -74.133; 1791.000;21.22458
1025.86;  333.267;  -54.267; 1794.833;20.95794
1026.41;  342.633;  -30.967; 1752.267;20.95071
1026.95;  330.133;  -34.433; 1718.233;20.80069
1027.50;  284.267;  -68.933; 1628.600;20.80666
1028.05;  258.867;  -88.000; 1591.133;20.65748
1028.59;  249.933;  -92.733; 1547.733;20.88837
1029.14;  257.533;  -76.900; 1549.700;20.56027
1029.69;  251.700;  -89.867; 1529.467;21.09304
1030.24;  234.167;  -84.200; 1504.800;20.03566
1030.78;  261.767;  -60.700; 1478.267;20.95345
1031.33;  231.800;  -63.800; 1411.167;20.04113
1031.88;  215.033;  -85.267; 1358.633;20.79784
1032.42;  193.800; -100.833; 1323.767;20.68183
1032.97;  209.600;  -86.667; 1315.767;21.12519
1033.52;  227.000;  -64.033; 1311.767;21.15375
1034.06;  218.500;  -67.333; 1283.400;21.16134
1034.61;  213.333;  -75.900; 1242.233;21.94265
1035.16;  203.633;  -80.533; 1196.533;22.25151
1035.70;  184.367;  -87.767; 1170.033;21.63566
1036.25;  179.000;  -94.733; 1149.500;22.00016
1036.80;  171.533;  -98.600; 1134.333;21.90981
1037.34;  179.167; -101.067; 1109.467;23.14958
1037.89;  181.700;  -82.167; 1110.700;22.12038
1038.44;  177.167;  -75.333; 1109.267;21.31521
1038.98;  165.900;  -72.100; 1077.800;20.69745
1039.53;  153.700;  -89.000; 1053.633;21.24041
1040.08;  143.267;  -99.967;  995.900;22.19552
1040.62;  170.233;  -63.167; 1019.033;21.56718
1041.17;  175.833;  -51.233; 1002.267;21.55355
1041.71;  175.067;  -51.600;  975.400;22.07076
1042.26;  141.133;  -81.600;  918.833;22.26369
1042.81;  124.133;  -87.333;  884.167;21.76703
1043.35;  139.533;  -63.600;  893.800;21.21719
1043.90;  117.700;  -91.333;  872.233;21.69371
1044.44;  112.200;  -82.933;  851.067;20.89222
1044.99;   90.433; -105.333;  819.733;21.16244
1045.54;   96.800;  -91.167;  806.433;20.94103
1046.08;  108.733; -100.500;  799.767;23.24126
1046.63;  120.500;  -76.233;  827.767;21.76254
1047.17;  114.400;  -67.700;  798.233;21.02933
1047.72;   89.300;  -75.033;  772.933;19.37969
1048.26;   81.833;  -89.567;  733.600;20.82203
1048.81;   74.933;  -97.400;  727.433;20.89311
1049.35;  121.100;  -65.300;  763.833;22.48131
1049.90;  126.800;  -62.767;  755.167;23.17630
1050.44;  134.400;  -61.200;  739.800;24.41948
1050.99;   83.833;  -86.167;  655.700;22.91517
1051.54;   57.967; -101.700;  607.867;22.50200
1052.08;   48.600; -111.633;  589.933;22.83936
1052.63;   66.300;  -98.267;  601.167;23.52857
1053.17;   64.433;  -82.433;  606.267;21.32520
1053.72;   67.367;  -72.167;  591.967;21.00984
1054.26;   45.467;  -96.967;  560.967;21.64860
1054.81;   83.133;  -73.833;  567.300;24.48269
1055.35;   66.100;  -73.267;  548.433;22.41703
1055.90;   63.867;  -69.533;  544.867;21.71224
1056.44;   60.900;  -64.600;  557.400;20.17685
1056.98;  113.333;  -41.467;  585.400;24.69425
1057.53;  122.133;  -36.100;  574.967;25.89461
1058.07;  113.633;  -57.033;  538.833;28.64175
1058.62;   69.433;  -80.300;  498.000;25.89198
1059.16;   79.900;  -77.467;  495.533;27.46364
1059.71;   58.733;  -85.733;  480.800;25.50012
1060.25;   67.100;  -89.733;  476.433;27.70091
1060.80;   50.767;  -89.167;  468.500;25.09265
1061.34;   35.167; -102.533;  433.300;25.69829
1061.89;   11.467; -113.133;  397.733;24.38993
1062.43;    2.967; -121.200;  375.433;25.00168
1062.97;   -2.167; -119.400;  379.700;23.48895
1063.52;   10.267; -117.467;  388.367;25.25206
1064.06;   27.900;  -97.233;  387.033;25.83976
1064.61;   32.367;  -89.967;  368.600;26.67733
1065.15;   65.633;  -42.333;  393.300;24.78384
1065.69;   60.333;  -43.800;  380.833;24.52312
1066.24;   68.133;  -30.833;  395.100;23.23525
1066.78;   28.267;  -67.667;  351.767;22.87213
1067.33;   19.700;  -83.633;  346.900;24.00124
1067.87;   46.633;  -63.567;  354.167;26.38047
1068.41;   43.667;  -58.367;  355.133;24.67553
1068.96;   29.933;  -71.800;  338.767;24.77876
1069.50;   -3.033;  -92.700;  307.267;22.41853
1070.04;    1.300; -101.167;  304.967;25.22981
1070.59;   33.133;  -58.233;  335.767;23.18951
1071.13;   24.200;  -72.700;  313.300;25.10363
1071.67;   27.533;  -58.100;  310.200;23.25097
1072.22;    5.767;  -81.367;  288.700;23.54531
1072.76;   23.500;  -63.100;  302.533;23.68493
1073.30;   -3.667;  -87.400;  277.033;22.97631
1073.85;   -9.733;  -85.600;  247.333;22.78734
1074.39;  -26.100;  -97.367;  234.267;21.48960
1074.93;   22.767;  -53.133;  264.033;23.93064
1075.48;   23.500;  -64.600;  256.500;27.43694
1076.02;   27.433;  -62.833;  258.033;28.13214
1076.56;   43.367;  -56.300;  267.100;30.81839
1077.10;   54.067;  -31.933;  295.433;26.27024
1077.65;   64.200;  -26.167;  299.733;27.72834
1078.19;   16.800;  -58.400;  253.667;24.09741
1078.73;   -1.000;  -84.533;  218.067;27.60520
1079.28;  -27.000; -107.300;  177.033;28.24150
1079.82;  -29.400; -102.000;  180.733;25.67791
1080.36;  -19.833;  -87.033;  195.133;23.81571
1080.90;  -35.000;  -94.367;  195.533;20.47833
1081.45;  -40.367; -106.733;  170.067;23.97640
1081.99;  -32.000; -101.600;  168.300;25.78733
1082.53;  -12.233;  -79.767;  178.900;26.10825
1083.07;   -1.733;  -64.933;  192.633;24.53734
1083.62;   -2.867;  -48.667;  194.200;18.85808
1084.16;   -7.600;  -51.133;  186.267;18.33755
1084.70;  -18.600;  -68.400;  174.000;20.54455
1085.24;  -40.500; -108.833;  149.167;26.48579
1085.78;  -30.333; -110.500;  155.733;30.11143
1086.33;  -31.233; -107.933;  152.333;29.46978
1086.87;  -32.400;  -95.533;  146.367;26.09894
1087.41;  -27.867;  -77.333;  145.767;22.17242
1087.95;  -35.633;  -77.200;  136.400;19.46005
1088.49;  -22.433;  -59.567;  156.400;17.19401
1089.04;  -41.200;  -93.067;  127.567;23.50808
1089.58;  -21.933;  -91.067;  134.300;30.67594
1090.12;  -19.667;  -84.767;  132.467;29.96778
1090.66;  -17.900;  -78.400;  139.100;27.81609
1091.20;  -18.700;  -64.267;  134.000;22.98252
1091.74;  -16.100;  -70.867;  124.133;28.08547
1092.29;   -1.933;  -58.233;  128.167;30.20386
1092.83;   -6.033;  -67.800;  132.100;30.89878
1093.37;  -40.667; -101.400;   99.300;30.26075
1093.91;  -44.667; -100.900;   96.967;28.41981
1094.45;  -40.800;  -86.667;   98.467;24.77494
1094.99;  -18.067;  -64.533;  115.500;25.81003
1095.53;  -20.500;  -66.067;  114.200;25.27737
1096.07;  -33.267;  -87.433;   91.700;30.23818
1096.62;  -37.967;  -77.600;   99.267;22.40859
1097.16;  -31.000;  -62.100;  108.233;18.25832
1097.70;  -21.833;  -50.167;  122.833;16.37765
1098.24;  -17.600;  -62.200;  108.600;26.11241
1098.78;  -38.733;  -85.700;   78.967;28.52227
1099.32;  -45.167;  -91.567;   80.167;27.01863
1099.86;  -40.700;  -79.933;   96.300;22.26215
1100.40;  -15.200;  -47.000;  135.500;17.42466

