M- 
Integration time: 175 ms
Average: 20 scans
Nr of pixels used for smoothing: 0
Data measured with spectrometer serial number: 0411041S1
Wave   ;Dark     ;Ref      ;Sample   ;Transmittance
[nm]   ;[counts] ;[counts] ;[counts] ;[% transmittance] 
299,87;3,4050;6429,1;124,99;1,8921
300,16;-18,870;6876,0;178,64;2,8646
300,45;68,625;6304,8;191,64;1,9726
300,74;-8,9700;5765,8;137,74;2,5405
301,04;-40,835;4920,3;67,938;2,1925
301,33;81,100;6995,6;242,94;2,3406
301,62;92,585;7060,7;271,04;2,5610
301,91;54,180;6427,7;194,39;2,1999
302,20;-34,295;7093,2;148,69;2,5673
302,49;39,890;6211,5;183,44;2,3259
302,79;-13,585;6808,5;148,89;2,3816
303,08;12,070;6643,7;186,84;2,6354
303,37;2,1350;7034,4;188,74;2,6535
303,66;26,000;5540,7;168,84;2,5901
303,95;-44,435;6044,1;124,69;2,7777
304,24;4,9700;6605,0;166,59;2,4487
304,53;-20,755;6449,3;149,24;2,6274
304,83;-8,8000;7499,2;192,64;2,6830
305,12;7,4650;7024,8;183,79;2,5127
305,41;69,630;5731,4;218,64;2,6318
305,70;0,8150;6298,4;198,14;3,1333
305,99;1,0700;5841,7;153,79;2,6148
306,28;97,505;6787,1;303,29;3,0762
306,57;-37,670;7094,6;170,19;2,9143
306,87;0,05500;6751,4;203,74;3,0169
307,16;38,640;5813,0;188,29;2,5916
307,45;-6,8750;5533,5;157,99;2,9757
307,74;-28,510;5497,4;133,69;2,9352
308,03;38,455;5669,8;209,54;3,0380
308,32;-8,6500;5978,8;153,74;2,7121
308,61;69,605;7007,8;263,89;2,8002
308,90;-1,9200;6278,8;175,69;2,8278
309,20;12,275;7756,8;253,64;3,1165
309,49;-45,350;6749,2;176,49;3,2649
309,78;-2,6850;6828,6;229,44;3,3979
310,07;95,330;7625,3;354,04;3,4357
310,36;7,1950;7655,3;271,09;3,4504
310,65;18,690;7522,0;268,19;3,3251
310,94;47,815;7550,6;289,44;3,2204
311,23;17,240;7102,5;243,79;3,1974
311,52;-2,0450;6937,3;213,59;3,1074
311,82;18,890;6840,1;260,54;3,5426
312,11;6,2350;6449,1;247,79;3,7491
312,40;-6,9700;7289,5;239,69;3,3805
312,69;23,505;7397,1;267,89;3,3143
312,98;8,5100;6812,5;268,94;3,8276
313,27;-22,785;7491,2;257,84;3,7347
313,56;-15,360;7218,1;266,34;3,8943
313,85;-29,795;6156,5;191,29;3,5738
314,14;31,190;8383,9;370,09;4,0573
314,43;-9,1350;7822,1;271,49;3,5834
314,72;31,250;7275,1;304,89;3,7775
315,02;-22,815;8302,5;299,84;3,8756
315,31;-27,230;7767,6;285,14;4,0074
315,60;3,2350;8176,1;328,24;3,9766
315,89;-9,2500;6742,8;265,49;4,0690
316,18;46,575;7566,4;354,69;4,0973
316,47;26,760;7213,0;320,84;4,0922
316,76;20,795;8126,8;379,89;4,4300
317,05;57,800;7868,0;392,94;4,2910
317,34;-34,725;7378,0;311,09;4,6651
317,63;4,5000;7802,1;343,44;4,3467
317,92;-6,8750;7891,1;369,24;4,7621
318,21;-42,620;7674,9;326,89;4,7879
318,50;6,9650;7321,7;339,09;4,5405
318,79;3,7100;7155,1;348,14;4,8162
319,08;-49,735;8283,3;334,54;4,6115
319,38;-1,4200;7766,9;370,84;4,7920
319,67;-12,875;7464,2;340,69;4,7286
319,96;28,800;6191,7;328,09;4,8563
320,25;10,245;6149,2;317,39;5,0032
320,54;1,0800;7651,4;383,64;5,0005
320,83;81,555;7102,3;433,04;5,0063
321,12;36,300;7612,4;389,04;4,6559
321,41;30,395;7932,9;442,34;5,2128
321,70;54,510;8951,5;532,19;5,3690
321,99;-5,7650;8763,7;460,49;5,3168
322,28;-3,0200;8487,4;455,84;5,4044
322,57;-9,2750;7095,8;351,24;5,0740
322,86;-10,160;6851,0;359,64;5,3897
323,15;-8,9550;9396,5;512,39;5,5430
323,44;23,090;8558,7;490,94;5,4811
323,73;-23,645;8990,0;472,09;5,4998
324,02;24,020;8203,9;488,64;5,6800
324,31;-36,235;7740,9;414,54;5,7961
324,60;14,290;6929,7;414,49;5,7870
324,89;-7,5650;7639,3;454,84;6,0469
325,18;26,210;7408,7;466,79;5,9679
325,47;-13,465;6906,1;394,64;5,8978
325,76;-27,770;7813,5;410,89;5,5942
326,05;-18,545;7298,0;436,94;6,2253
326,34;-19,020;8214,8;464,64;5,8740
326,63;49,325;8810,7;570,44;5,9479
326,92;-8,7500;9012,4;534,04;6,0168
327,21;10,975;8697,6;550,64;6,2126
327,50;44,180;8216,6;529,69;5,9408
327,79;-35,015;8586,1;493,19;6,1269
328,08;-6,7200;7469,2;440,34;5,9799
328,37;102,92;8453,5;593,94;5,8801
328,66;-26,550;9645,1;602,34;6,5024
328,95;-11,655;7783,3;483,99;6,3585
329,24;57,360;7968,0;564,99;6,4170
329,53;-11,425;8647,6;557,14;6,5661
329,82;14,840;8276,0;527,59;6,2067
330,11;-60,065;8048,1;490,69;6,7925
330,40;55,330;8404,8;565,74;6,1131
330,69;75,275;8299,2;623,34;6,6643
330,98;-30,280;6968,2;433,69;6,6295
331,27;-16,775;7986,0;497,64;6,4279
331,56;25,350;7834,8;567,29;6,9396
331,85;-32,555;9121,7;562,44;6,4996
332,14;-14,030;7750,6;504,59;6,6792
332,43;-11,215;7548,6;492,29;6,6602
332,72;-30,970;9713,5;646,49;6,9522
333,01;-14,035;9035,3;606,59;6,8582
333,30;-36,770;7511,4;516,49;7,3297
333,59;-21,545;9022,6;565,79;6,4941
333,88;22,610;8075,3;564,89;6,7341
334,17;-42,955;8141,3;526,34;6,9560
334,46;4,5200;8443,1;603,24;7,0950
334,75;26,495;9016,6;647,24;6,9048
335,04;21,860;7759,1;576,79;7,1721
335,33;5,7050;7125,2;508,14;7,0572
335,62;-15,000;8412,9;557,79;6,7963
335,91;-3,8850;9712,9;686,34;7,1034
336,19;2,6000;8362,2;602,84;7,1802
336,48;-15,665;8820,0;616,84;7,1585
336,77;40,230;9182,8;705,44;7,2759
337,06;-22,295;8773,6;606,29;7,1463
337,35;-15,050;9147,9;665,64;7,4287
337,64;43,905;8369,7;620,04;6,9199
337,93;-9,3700;8514,4;590,69;7,0398
338,22;-22,615;8167,2;588,24;7,4587
338,51;-2,7200;6570,1;476,14;7,2854
338,80;72,865;5842,5;505,04;7,4904
339,09;43,640;5568,6;434,29;7,0705
339,38;28,075;7071,3;567,64;7,6607
339,67;-20,140;8732,3;612,99;7,2337
339,96;63,655;8732,9;705,04;7,3984
340,24;-14,330;7944,4;592,99;7,6308
340,53;15,235;8280,4;632,79;7,4718
340,82;19,380;8380,5;623,74;7,2282
341,11;-11,355;8587,9;647,64;7,6633
341,40;-33,090;8007,0;576,39;7,5805
341,69;-8,2150;9097,2;680,54;7,5642
341,98;-32,880;8631,7;645,54;7,8298
342,27;11,625;7367,3;594,59;7,9254
342,56;16,340;7987,6;626,44;7,6537
342,85;11,165;8041,4;608,34;7,4365
343,14;-4,0400;7083,0;543,59;7,7272
343,42;-6,9750;6583,1;519,09;7,9826
343,71;-39,340;6458,7;471,64;7,8635
344,00;-32,835;6825,2;491,09;7,6396
344,29;2,8900;6194,9;472,49;7,5839
344,58;-21,745;6834,0;506,29;7,7020
344,87;-6,2800;6270,9;484,04;7,8112
345,16;5,6050;6930,1;536,19;7,6624
345,45;-18,310;7669,5;585,39;7,8527
345,74;31,895;7400,9;624,69;8,0444
346,02;-5,8800;8138,1;628,44;7,7888
346,31;-11,865;7235,6;563,39;7,9373
346,60;-18,100;7744,1;611,39;8,1096
346,89;27,775;6874,7;573,34;7,9680
347,18;8,8400;8175,7;648,14;7,8279
347,47;29,255;6562,2;547,44;7,9318
347,76;-10,650;6695,3;527,49;8,0248
348,05;-10,405;7198,9;555,24;7,8460
348,33;-16,440;6516,4;509,69;8,0536
348,62;27,355;6666,8;568,89;8,1563
348,91;-37,570;6832,5;528,44;8,2387
349,20;16,055;7085,7;591,99;8,1465
349,49;-16,380;7358,2;627,99;8,7376
349,78;26,715;7807,9;630,19;7,7556
350,07;-36,200;8288,3;650,74;8,2520
350,35;-32,025;6829,2;517,79;8,0133
350,64;31,620;7437,8;629,79;8,0766
350,93;-42,885;8211,5;624,04;8,0797
351,22;26,310;7627,1;673,64;8,5166
351,51;-3,1350;8004,4;652,99;8,1938
351,80;13,250;7543,3;617,24;8,0210
352,08;-15,095;8322,0;684,84;8,3954
352,37;10,140;7194,6;607,74;8,3179
352,66;-21,845;6979,5;572,44;8,4882
352,95;-23,370;8036,9;645,24;8,2951
353,24;-12,045;7666,2;638,79;8,4763
353,53;-32,510;6420,5;527,04;8,6711
353,81;7,0550;6799,3;548,94;7,9779
354,10;0,3600;8000,4;646,44;8,0759
354,39;-14,895;6886,0;567,99;8,4465
354,68;5,4000;6049,6;508,84;8,3293
354,97;0,6450;5274,5;435,69;8,2490
355,26;-3,7000;6425,8;515,64;8,0775
355,54;-5,6350;7346,8;612,89;8,4125
355,83;37,650;8127,9;706,19;8,2635
356,12;-19,225;8072,6;657,99;8,3691
356,41;-24,010;8262,3;660,54;8,2612
356,70;-4,2450;7606,4;654,59;8,6567
356,98;9,1200;7178,1;574,94;7,8925
357,27;71,435;7665,4;707,54;8,3764
357,56;-23,720;7208,2;574,34;8,2697
357,85;-12,745;8407,9;675,49;8,1731
358,14;97,010;8553,7;816,79;8,5113
358,42;25,795;6353,4;550,14;8,2865
358,71;-1,1500;6782,6;576,99;8,5223
359,00;35,315;6245,2;540,59;8,1366
359,29;4,6000;7038,6;604,89;8,5341
359,58;12,975;8244,0;692,94;8,2610
359,86;-13,660;8093,5;689,64;8,6750
360,15;-27,655;6271,9;505,29;8,4600
360,44;67,550;6518,4;591,54;8,1228
360,73;-20,725;8271,5;695,19;8,6336
361,01;17,900;9189,2;802,09;8,5505
361,30;-15,215;8435,8;692,99;8,3801
361,59;-25,470;7546,4;604,24;8,3165
361,88;5,3350;8095,6;681,84;8,3620
362,17;-35,370;8443,8;676,84;8,3995
362,45;-23,595;8486,8;664,59;8,0864
362,74;49,670;7927,1;742,29;8,7925
363,03;-2,3550;8328,4;674,54;8,1253
363,32;2,2500;6913,9;606,14;8,7372
363,60;16,655;7488,9;629,74;8,2048
363,89;-44,330;8609,4;666,89;8,2186
364,18;-7,6150;7631,8;629,44;8,3390
364,47;23,710;7957,4;719,99;8,7762
364,75;-19,055;8341,4;669,94;8,2411
365,04;-18,260;7220,9;587,19;8,3635
365,33;18,095;7611,4;672,99;8,6246
365,62;10,110;6879,6;589,04;8,4275
365,90;-4,9250;7028,2;584,74;8,3841
366,19;-0,9800;7476,3;620,74;8,3148
366,48;-27,215;6715,6;524,99;8,1895
366,77;-32,250;6960,3;578,39;8,7326
367,05;-13,475;7331,7;567,99;7,9162
367,34;41,620;6794,0;581,54;7,9960
367,63;42,945;7536,9;683,69;8,5501
367,92;3,5700;7806,5;646,24;8,2362
368,20;36,905;7210,3;629,39;8,2594
368,49;4,1500;7279,6;594,14;8,1093
368,78;1,8450;8112,8;679,44;8,3541
369,06;21,750;7968,9;676,29;8,2361
369,35;-7,6450;7985,0;669,74;8,4751
369,64;-26,060;7196,7;561,94;8,1409
369,93;-9,7450;8232,5;683,89;8,4156
370,21;-19,690;7183,4;546,84;7,8651
370,50;11,625;7676,9;649,14;8,3169
370,79;-32,340;7349,4;570,64;8,1685
371,07;-0,9850;6550,6;517,44;7,9129
371,36;-20,990;7860,7;602,39;7,9092
371,65;6,3050;7037,3;571,09;8,0328
371,94;24,510;7189,5;619,94;8,3102
372,22;6,7250;6762,5;544,74;7,9637
372,51;29,010;7537,6;645,39;8,2089
372,80;-41,455;7305,7;560,24;8,1895
373,08;33,780;7860,6;681,94;8,2812
373,37;-16,275;7412,0;577,39;7,9919
373,66;70,280;7521,0;694,49;8,3778
373,94;39,155;7500,8;643,79;8,1032
374,23;-15,100;7120,3;585,14;8,4122
374,52;-7,1850;7920,3;600,49;7,6654
374,80;41,110;7279,4;616,04;7,9428
375,09;1,9050;7624,1;606,89;7,9372
375,38;4,1300;7603,2;618,79;8,0886
375,66;-44,085;6947,6;519,99;8,0677
375,95;21,660;7110,2;586,79;7,9724
376,24;22,575;7108,5;565,64;7,6640
376,52;-32,920;5695,3;399,29;7,5453
376,81;29,385;6965,8;575,84;7,8781
377,10;20,740;6860,3;567,64;7,9961
377,38;-30,865;7116,7;507,34;7,5299
377,67;40,830;7684,5;677,34;8,3273
377,96;-17,935;7597,8;581,24;7,8675
378,24;-24,250;7467,6;560,14;7,8003
378,53;7,3950;6971,4;524,04;7,4188
378,82;9,9100;7539,4;607,39;7,9351
379,10;4,7550;7575,6;578,54;7,5789
379,39;43,450;8043,4;672,09;7,8580
379,68;-25,735;7755,4;578,44;7,7646
379,96;-0,5500;7731,3;596,04;7,7160
380,25;1,3150;7697,7;609,94;7,9079
380,54;405,40;8180,8;973,29;7,3036
380,82;38,865;7912,8;658,09;7,8642
381,11;10,420;7524,0;597,09;7,8081
381,40;-36,955;6996,9;495,89;7,5754
381,68;-7,5200;7366,7;546,29;7,5101
381,97;-1,8250;7178,9;524,84;7,3344
382,25;50,340;7580,1;638,94;7,8170
382,54;10,005;7098,7;553,14;7,6620
382,83;26,970;7559,2;604,59;7,6686
383,11;14,685;6858,9;562,84;8,0089
383,40;0,8400;6303,3;503,54;7,9763
383,69;65,545;6763,6;569,89;7,5297
383,97;71,060;8019,7;682,64;7,6942
384,26;28,445;7182,7;570,49;7,5765
384,54;-20,910;6463,7;466,89;7,5224
384,83;-13,035;6641,1;495,54;7,6430
385,12;11,440;5708,7;424,24;7,2456
385,40;15,985;6293,7;471,99;7,2638
385,69;-22,180;7311,0;536,89;7,6238
385,97;38,705;7228,6;558,79;7,2335
386,26;-11,840;7535,3;574,64;7,7708
386,55;13,325;7548,7;571,54;7,4079
386,83;3,8000;6806,8;514,89;7,5126
387,12;-35,805;7944,5;566,84;7,5516
387,40;39,840;8025,3;652,39;7,6708
387,69;3,9250;8026,5;601,59;7,4497
387,98;29,270;8001,9;611,64;7,3046
388,26;2,4250;8465,6;618,34;7,2776
388,55;-22,000;8870,0;642,54;7,4734
388,83;1,9350;8605,7;601,99;6,9743
389,12;26,730;7730,2;602,69;7,4766
389,40;50,165;7561,5;596,79;7,2773
389,69;-18,480;7542,3;532,34;7,2852
389,98;-49,025;7400,1;506,09;7,4520
390,26;-29,830;7112,3;474,74;7,0647
390,55;-26,385;7770,2;544,74;7,3253
390,83;48,800;7695,0;627,99;7,5748
391,12;-11,745;7852,2;569,64;7,3930
391,40;50,410;8316,4;649,54;7,2481
391,69;-8,7250;8883,5;654,74;7,4612
391,98;-18,230;7239,4;489,19;6,9915
392,26;15,305;7177,6;552,69;7,5029
392,55;12,410;7042,8;524,89;7,2894
392,83;27,405;8259,7;604,14;7,0058
393,12;22,470;8670,7;657,39;7,3416
393,40;41,735;8405,5;640,14;7,1547
393,69;1,7200;8298,6;597,34;7,1788
393,97;-29,605;8463,7;556,04;6,8953
394,26;28,180;8389,5;636,29;7,2729
394,54;-16,175;8616,0;585,44;6,9694
394,83;-20,370;8220,1;534,09;6,7285
395,12;1,9650;9004,7;621,89;6,8860
395,40;49,580;9097,0;662,34;6,7728
395,69;40,865;8360,6;625,59;7,0281
395,97;-17,250;7646,1;508,19;6,8565
396,26;-1,0950;8250,4;554,59;6,7343
396,54;20,100;8311,5;598,14;6,9715
396,83;9,7050;9244,5;647,79;6,9096
397,11;69,020;8837,2;656,44;6,6994
397,40;-37,105;8375,8;537,89;6,8346
397,68;30,630;8698,1;616,54;6,7599
397,97;2,7250;8424,1;573,89;6,7823
398,25;26,340;10102;709,24;6,7775
398,54;-1,3150;8443,7;537,64;6,3819
398,82;13,430;9104,0;602,09;6,4755
399,11;-49,635;9923,9;609,34;6,6072
399,39;-5,6900;9647,1;648,74;6,7797
399,68;19,525;9460,0;635,49;6,5247
399,96;1,9100;9272,9;628,04;6,7536
400,25;-30,175;9094,4;564,94;6,5221
400,53;12,130;9074,1;627,64;6,7922
400,82;-8,9050;8833,2;556,49;6,3944
401,10;-16,730;7775,8;473,34;6,2889
401,39;71,515;9092,0;652,49;6,4406
401,67;-12,730;7757,0;495,14;6,5365
401,96;53,885;8477,0;580,59;6,2530
402,24;-22,850;8679,3;537,74;6,4419
402,53;-25,875;8325,7;507,69;6,3888
402,81;-39,720;7499,8;442,14;6,3911
403,10;-8,5250;8445,2;525,29;6,3145
403,38;31,690;7472,2;546,04;6,9128
403,67;35,465;7958,8;536,14;6,3190
403,95;-29,410;8158,2;497,34;6,4335
404,24;-47,945;8406,5;493,99;6,4100
404,52;47,310;9006,6;626,29;6,4623
404,80;-29,815;7669,6;473,89;6,5421
405,09;40,080;7826,7;520,09;6,1645
405,37;38,825;8290,4;564,29;6,3680
405,66;11,500;9141,7;605,14;6,5019
405,94;-24,655;9214,0;567,64;6,4111
406,23;-1,5600;8116,2;519,84;6,4229
406,51;-0,6350;8253,9;530,39;6,4331
406,80;-17,970;8347,4;521,34;6,4469
407,08;65,865;7738,6;512,04;5,8151
407,37;36,640;8124,8;562,74;6,5046
407,65;-7,2350;8197,9;491,04;6,0727
407,93;-1,4400;7829,0;488,29;6,2542
408,22;93,245;8657,7;620,14;6,1521
408,50;36,340;8747,3;572,49;6,1548
408,79;-25,535;7671,2;462,84;6,3452
409,07;-8,3300;7737,6;488,24;6,4107
409,36;0,8650;8102,8;497,84;6,1340
409,64;-15,980;8765,7;508,34;5,9706
409,92;-27,385;8226,2;518,54;6,6144
410,21;61,470;8536,3;587,54;6,2074
410,49;0,6350;7962,3;501,49;6,2908
410,78;81,050;8976,9;647,24;6,3646
411,06;-36,665;8001,4;438,59;5,9125
411,35;-21,920;7589,8;465,24;6,4001
411,63;-2,3050;7271,7;432,89;5,9829
411,91;-5,6600;8026,2;471,14;5,9363
412,20;47,045;8153,2;540,59;6,0885
412,48;-24,710;8445,8;498,94;6,1820
412,77;130,15;8409,2;630,29;6,0410
413,05;3,4600;8762,5;538,49;6,1083
413,33;14,385;7923,3;500,84;6,1507
413,62;17,010;8531,3;499,99;5,6726
413,90;38,065;8142,6;537,69;6,1647
414,19;-5,1200;7236,3;447,69;6,2530
414,47;-22,855;7616,6;469,34;6,4428
414,75;33,910;8031,6;508,54;5,9345
415,04;-39,205;8195,6;428,94;5,6849
415,32;-1,0400;7701,2;455,04;5,9213
415,60;-8,5550;7576,1;426,94;5,7418
415,89;-41,860;8022,9;441,49;5,9933
416,17;21,965;6909,3;436,04;6,0121
416,46;46,600;7564,4;470,29;5,6358
416,74;6,7950;7790,9;468,64;5,9332
417,02;-9,5600;7107,2;399,14;5,7428
417,31;-42,065;7534,3;379,64;5,5661
417,59;-6,1600;8588,0;500,94;5,9005
417,87;2,2650;7712,4;447,69;5,7771
418,16;22,180;6876,1;416,59;5,7545
418,44;-43,485;6894,5;353,84;5,7267
418,73;-8,1100;7393,1;410,54;5,6565
419,01;6,5050;7661,2;447,69;5,7635
419,29;-7,0700;7576,8;400,09;5,3687
419,58;-16,975;8243,1;440,79;5,5418
419,86;0,9500;8282,0;490,84;5,9158
420,14;8,5650;8029,6;435,14;5,3182
420,43;27,860;8259,2;467,94;5,3464
420,71;63,375;8287,4;480,24;5,0688
420,99;27,350;8537,4;507,39;5,6408
421,28;-43,035;9164,1;461,09;5,4754
421,56;-18,390;8973,8;452,19;5,2332
421,84;9,1950;8829,6;480,64;5,3449
422,13;58,850;8883,4;549,09;5,5554
422,41;2,8150;8764,0;468,39;5,3140
422,69;4,4200;8938,6;467,09;5,1786
422,98;-7,4850;8250,9;399,79;4,9316
423,26;-10,420;8380,2;441,59;5,3871
423,54;48,715;7757,5;428,34;4,9245
423,83;9,6400;7746,2;420,19;5,3066
424,11;41,355;8510,2;477,29;5,1475
424,39;-9,9800;7286,6;361,84;5,0958
424,68;55,625;7660,0;450,09;5,1873
424,96;28,440;8025,1;446,69;5,2303
425,24;-23,725;8195,8;398,59;5,1379
425,52;11,980;8295,6;430,29;5,0498
425,81;24,245;8240,9;447,24;5,1480
426,09;-32,690;7773,4;346,09;4,8523
426,37;8,7850;7470,8;380,29;4,9786
426,66;71,770;7637,9;422,84;4,6400
426,94;-2,1750;7743,4;386,34;5,0159
427,22;32,300;8944,1;485,39;5,0841
427,51;-0,2150;8535,7;418,69;4,9075
427,79;14,440;8360,4;438,04;5,0755
428,07;-9,1350;8177,8;366,34;4,5862
428,35;69,480;8061,6;481,94;5,1608
428,64;-17,505;8242,0;417,49;5,2665
428,92;-22,380;8103,4;383,69;4,9973
429,20;10,755;8494,9;431,34;4,9573
429,49;-24,740;8867,1;430,84;5,1235
429,77;21,945;9413,9;500,09;5,0910
430,05;-14,830;9427,9;472,59;5,1618
430,33;8,0550;9590,7;486,09;4,9885
430,62;-15,160;9558,7;450,04;4,8590
430,90;-30,245;8346,9;385,59;4,9639
431,18;-37,800;9196,4;439,54;5,1692
431,46;-13,825;8230,5;383,29;4,8168
431,75;-28,950;7412,8;346,54;5,0457
432,03;61,375;6630,1;415,74;5,3947
432,31;47,900;7028,4;402,94;5,0861
432,59;9,7850;7038,6;379,99;5,2669
432,88;27,860;7152,0;388,34;5,0599
433,16;-7,3950;6443,6;334,64;5,3020
433,44;104,68;7600,8;502,44;5,3062
433,72;69,255;8665,3;521,19;5,2574
434,01;13,850;7778,7;419,99;5,2304
434,29;54,355;7754,9;462,44;5,2994
434,57;-9,2700;6429,9;344,14;5,4884
434,85;-11,775;6505,8;329,94;5,2430
435,14;22,830;7409,7;384,84;4,9007
435,42;-28,555;7636,7;389,89;5,4590
435,70;69,970;7799,3;458,14;5,0220
435,98;32,735;6847,6;377,94;5,0654
436,26;72,050;7689,3;464,44;5,1513
436,55;-16,795;7776,0;424,14;5,6582
436,83;-26,670;6669,5;325,09;5,2531
437,11;26,905;7346,1;405,39;5,1711
437,39;-9,2100;7225,5;380,39;5,3851
437,68;42,005;7367,1;449,09;5,5574
437,96;-2,0900;6887,0;369,19;5,3893
438,24;-28,725;7055,6;327,84;5,0331
438,52;-33,670;6747,2;330,19;5,3659
438,80;-17,945;7612,5;394,84;5,4097
439,09;13,930;8177,6;442,14;5,2453
439,37;-15,715;7185,6;363,29;5,2630
439,65;28,550;6708,8;390,24;5,4142
439,93;36,905;6433,6;378,14;5,3345
440,21;-9,5500;7501,6;389,04;5,3066
440,50;-10,325;7376,5;369,09;5,1364
440,78;-5,4700;7348,9;396,59;5,4669
441,06;-36,655;8240,1;387,79;5,1281
441,34;-16,040;8462,1;426,19;5,2161
441,62;51,125;8555,2;489,39;5,1536
441,90;32,940;8851,8;496,24;5,2535
442,19;9,1550;8585,3;443,89;5,0691
442,47;34,390;7993,3;426,04;4,9209
442,75;-27,095;7388,4;364,79;5,2847
443,03;22,960;7844,9;387,84;4,6648
443,31;10,695;8285,3;435,84;5,1379
443,59;-0,7000;8681,2;440,89;5,0863
443,88;12,165;8448,0;448,79;5,1758
444,16;-39,980;7874,5;369,39;5,1724
444,44;32,445;8328,3;449,29;5,0247
444,72;33,010;7966,7;427,89;4,9772
445,00;-23,305;7092,9;314,79;4,7510
445,28;26,500;7300,1;380,54;4,8675
445,57;34,475;7706,7;418,69;5,0078
445,85;-6,4200;7598,9;380,49;5,0873
446,13;47,355;7961,2;416,69;4,6669
446,41;24,840;7378,4;373,39;4,7399
446,69;1,7750;8142,2;374,79;4,5822
446,97;-6,6700;8066,9;389,59;4,9081
447,25;2,7550;7502,2;356,44;4,7161
447,54;-12,580;7044,0;315,94;4,6555
447,82;4,7450;6896,2;337,84;4,8334
448,10;5,6100;6200,5;300,64;4,7624
448,38;-42,195;7333,0;281,94;4,3949
448,66;-15,920;6957,5;316,29;4,7639
448,94;68,645;7210,3;402,64;4,6767
449,22;14,130;6772,8;299,09;4,2162
449,50;35,525;6999,1;363,69;4,7126
449,79;-7,7700;6622,2;282,44;4,3772
450,07;15,055;6755,2;297,29;4,1873
450,35;85,440;6209,5;382,44;4,8497
450,63;-15,015;6543,0;283,79;4,5563
450,91;-41,670;6784,4;269,54;4,5591
451,19;-20,785;6865,5;271,14;4,2392
451,47;24,790;6924,6;342,64;4,6066
451,75;35,455;6750,2;326,24;4,3305
452,03;27,580;6657,5;320,39;4,4164
452,31;1,1150;6769,1;316,09;4,6538
452,60;-10,100;6504,2;267,64;4,2635
452,88;9,8550;6447,5;320,34;4,8229
453,16;64,360;6296,2;313,89;4,0041
453,44;-7,1950;6532,6;297,09;4,6528
453,72;20,280;5987,9;259,69;4,0118
454,00;-28,365;5881,7;242,69;4,5863
454,28;12,750;5584,9;254,74;4,3428
454,56;-34,345;5734,0;226,39;4,5200
454,84;18,800;5707,1;269,74;4,4115
455,12;44,225;6482,8;335,84;4,5291
455,40;16,050;6239,6;316,14;4,8218
455,68;-23,325;5756,3;244,54;4,6346
455,96;70,610;6295,5;378,34;4,9435
456,25;-22,955;5730,5;234,44;4,4737
456,53;-19,460;6176,5;276,14;4,7708
456,81;89,705;6173,8;379,54;4,7638
457,09;56,490;6265,6;373,79;5,1102
457,37;39,955;5903,0;321,94;4,8095
457,65;-23,810;6354,1;270,59;4,6159
457,93;-6,9150;6736,8;321,24;4,8661
458,21;-6,6700;6774,9;307,69;4,6355
458,49;-15,165;6600,7;314,14;4,9775
458,77;42,220;6341,7;361,74;5,0721
459,05;26,195;6795,2;341,04;4,6513
459,33;62,600;6509,4;393,49;5,1326
459,61;-1,2950;6825,9;319,84;4,7037
459,89;23,580;6899,9;349,14;4,7345
460,17;-0,5750;6686,0;341,34;5,1134
460,45;-31,400;6510,4;310,04;5,2194
460,73;-39,825;5997,9;266,74;5,0774
461,01;13,430;6637,7;366,69;5,3328
461,29;14,645;6376,4;340,84;5,1274
461,57;4,0800;6602,0;332,79;4,9820
461,85;-31,495;5527,9;239,54;4,8752
462,13;16,310;5728,3;308,44;5,1143
462,41;32,165;5837,2;330,29;5,1356
462,69;33,430;6262,5;374,99;5,4833
462,97;-31,105;5950,8;299,44;5,5257
463,25;15,900;5389,8;291,69;5,1320
463,53;32,285;5292,7;325,59;5,5757
463,81;-2,1000;5960,9;320,74;5,4140
464,09;32,515;6107,3;376,74;5,6665
464,37;-2,7900;5250,8;298,54;5,7356
464,65;30,595;6670,0;380,84;5,2752
464,93;-8,5300;7066,9;381,24;5,5087
465,21;-40,785;6396,6;315,24;5,5306
465,49;86,680;6862,5;495,19;6,0289
465,77;-22,785;6628,3;371,44;5,9272
466,05;31,380;6578,2;420,59;5,9450
466,33;-14,005;6361,2;372,84;6,0679
466,61;49,290;5908,2;399,79;5,9823
466,89;19,595;5443,1;329,14;5,7074
467,17;0,6200;5486,8;316,19;5,7521
467,45;-11,885;5326,8;293,59;5,7218
467,73;5,5400;5510,2;316,99;5,6579
468,01;-5,1250;5537,3;326,34;5,9804
468,29;0,9400;5470,3;320,94;5,8507
468,57;15,235;5481,4;353,99;6,1973
468,85;37,450;5179,2;351,49;6,1076
469,13;43,795;5045,6;317,59;5,4739
469,41;10,160;4867,9;305,89;6,0878
469,69;-47,085;4668,5;247,64;6,2500
469,97;80,320;4736,7;358,99;5,9847
470,25;-12,135;4571,1;282,94;6,4381
470,53;-8,1900;4580,5;236,99;5,3431
470,81;2,7250;4569,1;294,19;6,3828
471,09;-10,980;4519,7;266,79;6,1308
471,36;-23,945;4516,3;251,44;6,0653
471,64;7,7900;4512,8;299,19;6,4683
471,92;-0,9150;4574,0;266,69;5,8494
472,20;8,8800;4610,3;294,79;6,2134
472,48;51,195;4745,9;338,69;6,1238
472,76;46,980;4892,1;365,34;6,5707
473,04;-16,985;4871,8;271,04;5,8915
473,32;18,990;5080,7;322,89;6,0038
473,60;16,965;4977,9;313,14;5,9701
473,88;31,080;4913,9;326,59;6,0520
474,16;32,095;4787,1;328,19;6,2270
474,44;-9,4500;4596,6;258,79;5,8236
474,72;15,205;4788,5;272,74;5,3953
474,99;-4,1000;4989,7;306,59;6,2215
475,27;-18,375;5123,3;278,09;5,7658
475,55;17,440;5126,5;328,24;6,0832
475,83;4,2450;4947,4;271,19;5,4002
476,11;2,4800;4827,3;287,49;5,9071
476,39;-25,645;4755,6;252,34;5,8140
476,67;10,450;4723,9;273,59;5,5827
476,95;-8,9950;4651,8;249,64;5,5491
477,23;44,190;4569,7;313,14;5,9429
477,51;-15,805;4474,4;235,69;5,6009
477,78;13,170;4738,2;284,74;5,7474
478,06;-17,725;4858,7;248,19;5,4531
478,34;15,040;4907,6;281,14;5,4388
478,62;-12,795;4748,5;255,84;5,6421
478,90;12,930;4625,3;270,49;5,5841
479,18;-14,895;4553,8;243,74;5,6609
479,46;-49,560;4508,5;216,09;5,8281
479,74;7,2050;4765,7;272,29;5,5707
480,01;24,990;4998,4;278,24;5,0920
480,29;-45,475;4867,4;221,04;5,4248
480,57;51,500;4959,3;280,59;4,6679
480,85;-30,065;4734,4;246,89;5,8129
481,13;-7,7900;4619,9;244,44;5,4505
481,41;25,505;4727,9;291,99;5,6670
481,69;73,120;4858,9;328,79;5,3422
481,96;-31,915;4838,9;216,09;5,0917
482,24;-15,260;4658,8;243,24;5,5305
482,52;7,5750;4427,3;225,74;4,9362
482,80;33,730;4359,8;252,34;5,0533
483,08;-14,065;4242,5;213,99;5,3577
483,36;0,7900;4341,7;233,49;5,3606
483,63;17,535;4331,2;223,74;4,7802
483,91;-11,270;4459,9;238,99;5,5972
484,19;3,5450;4564,3;239,79;5,1799
484,47;-9,8900;4708,6;246,49;5,4335
484,75;42,345;4964,4;277,39;4,7753
485,03;2,0600;4837,4;237,79;4,8751
485,30;28,895;5433,3;313,14;5,2595
485,58;24,440;13571;739,64;5,2797
485,86;25,185;15193;867,29;5,5518
486,14;37,980;14879;864,14;5,5667
486,42;-21,295;14039;745,14;5,4510
486,69;59,550;7155,0;417,69;5,0474
486,97;5,0850;4641,5;267,19;5,6531
487,25;2,1800;4687,0;248,84;5,2650
487,53;18,685;4664,2;253,44;5,0533
487,81;-5,9700;4302,6;254,24;6,0393
488,08;-0,4350;3851,2;197,89;5,1490
488,36;5,5000;3692,5;211,29;5,5814
488,64;101,50;3744,6;285,29;5,0450
488,92;73,400;3702,4;293,64;6,0689
489,20;-15,265;3678,9;190,64;5,5737
489,47;-1,3500;3651,6;222,74;6,1344
489,75;-3,2750;3623,3;178,94;5,0243
490,03;24,490;3545,5;224,94;5,6929
490,31;-6,6750;3458,6;200,89;5,9897
490,59;8,0900;3386,9;215,54;6,1397
490,86;30,375;3490,5;230,69;5,7892
491,14;25,580;3396,2;251,04;6,6890
491,42;16,125;3326,1;203,14;5,6500
491,70;28,880;3339,9;251,94;6,7368
491,97;-42,385;3118,5;138,99;5,7381
492,25;-7,5100;3162,1;194,69;6,3792
492,53;2,1150;3245,0;205,09;6,2591
492,81;50,710;3198,4;246,04;6,2054
493,08;57,795;3209,7;276,59;6,9417
493,36;-12,410;3204,4;180,89;6,0090
493,64;73,785;3170,7;263,04;6,1111
493,92;22,820;3123,8;212,14;6,1050
494,19;-11,715;3166,1;195,04;6,5062
494,47;-23,230;3041,4;152,99;5,7500
494,75;-9,6850;2974,3;185,89;6,5540
495,03;-25,100;2940,1;171,74;6,6383
495,30;7,9350;2717,5;186,39;6,5861
495,58;43,220;2724,4;193,89;5,6194
495,86;4,6450;2952,7;206,24;6,8381
496,13;22,670;3147,2;227,19;6,5456
496,41;32,045;3344,0;257,14;6,7963
496,69;49,540;3316,6;289,94;7,3582
496,97;-1,3350;2944,7;195,74;6,6895
497,24;1,0200;2764,4;205,84;7,4118
497,52;-6,2550;2465,0;155,39;6,5410
497,80;-2,6600;2456,1;168,64;6,9668
498,08;40,235;2590,1;224,19;7,2141
498,35;12,470;2598,9;191,94;6,9389
498,63;-22,825;2697,1;187,64;7,7379
498,91;26,930;2753,7;225,14;7,2689
499,18;-34,585;2746,0;217,39;9,0619
499,46;87,030;2900,1;298,39;7,5135
499,74;-37,905;2746,4;173,19;7,5815
500,01;41,370;2756,0;258,94;8,0146
500,29;15,265;2612,8;189,44;6,7053
500,57;37,700;2550,5;260,89;8,8821
500,84;25,275;2514,5;204,19;7,1875
501,12;8,1900;2728,1;222,04;7,8622
501,40;11,125;2783,6;242,94;8,3611
501,68;8,0700;2694,5;211,19;7,5609
501,95;6,7850;2819,3;222,44;7,6677
502,23;5,0200;2664,1;211,84;7,7779
502,51;7,2250;2634,1;213,24;7,8425
502,78;11,430;2695,1;237,29;8,4161
503,06;16,195;2685,7;252,64;8,8572
503,34;8,7500;2671,3;225,19;8,1288
503,61;-10,535;2623,2;234,09;9,2880
503,89;7,7300;2546,2;232,34;8,8483
504,17;28,115;2502,8;245,89;8,7999
504,44;10,930;2329,5;214,19;8,7667
504,72;-15,275;2298,4;179,44;8,4156
504,99;12,320;2382,7;194,04;7,6662
505,27;70,255;2463,2;272,59;8,4555
505,55;10,800;2367,7;231,04;9,3442
505,82;6,3450;2354,1;209,64;8,6589
506,10;-2,8700;2388,3;185,64;7,8836
506,38;21,925;2412,7;220,39;8,3013
506,65;41,760;2430,2;253,64;8,8708
506,93;-29,815;2263,1;178,69;9,0932
507,21;24,970;2117,9;199,74;8,3505
507,48;42,395;2129,4;199,44;7,5247
507,76;-5,2900;2130,2;190,79;9,1819
508,03;-23,365;2166,1;192,59;9,8633
508,31;16,230;2301,6;213,94;8,6510
508,59;18,425;2258,7;226,94;9,3075
508,86;-20,700;2090,3;158,64;8,4954
509,14;-6,4550;2107,3;200,59;9,7951
509,42;-4,7300;2027,3;165,84;8,3938
509,69;32,325;2047,2;218,44;9,2370
509,97;19,320;2091,7;206,09;9,0123
510,24;59,255;2155,4;252,19;9,2041
510,52;-17,240;2079,7;165,39;8,7091
510,80;-7,3450;2021,9;173,24;8,8992
511,07;16,110;2086,1;196,54;8,7162
511,35;-58,625;1982,2;109,29;8,2276
511,62;-6,1300;2010,2;185,59;9,5084
511,90;17,265;1982,9;199,44;9,2679
512,17;-16,350;1882,1;154,94;9,0226
512,45;-30,725;1865,5;125,19;8,2223
512,73;34,940;1931,5;209,74;9,2163
513,00;1,4250;1951,3;161,19;8,1935
513,28;-13,570;1930,3;191,49;10,549
513,55;78,435;1969,8;225,54;7,7775
513,83;26,070;1903,5;211,94;9,9002
514,11;67,755;1913,6;223,49;8,4369
514,38;33,150;1883,2;186,09;8,2668
514,66;-10,095;1840,7;146,29;8,4495
514,93;-2,4700;1752,0;152,69;8,8435
515,21;11,265;1725,7;159,74;8,6604
515,48;67,910;1799,0;218,49;8,6985
515,76;-34,925;1733,9;121,94;8,8682
516,03;53,780;1813,6;227,49;9,8707
516,31;33,105;1860,9;194,94;8,8541
516,59;81,380;1912,6;245,99;8,9888
516,86;28,325;1804,3;168,84;7,9118
517,14;16,440;1782,4;166,74;8,5110
517,41;-3,2550;1698,1;164,94;9,8860
517,69;-5,5600;1682,8;141,84;8,7300
517,96;-27,885;1598,5;121,49;9,1845
518,24;-20,500;1615,7;138,49;9,7167
518,51;58,245;1698,0;208,04;9,1350
518,79;52,660;1750,4;219,89;9,8500
519,06;-15,825;1732,6;154,74;9,7551
519,34;-9,7600;1760,4;152,24;9,1517
519,61;3,9750;1741,8;173,29;9,7430
519,89;29,660;1671,0;176,39;8,9395
520,16;54,555;1602,1;189,09;8,6934
520,44;-2,9900;1510,3;112,19;7,6109
520,71;3,9650;1506,5;155,94;10,115
520,99;-20,410;1514,7;125,69;9,5171
521,26;11,165;1587,1;145,29;8,5109
521,54;-1,4200;1595,8;132,79;8,4027
521,81;-46,295;1488,7;103,89;9,7842
522,09;-13,400;1480,8;122,99;9,1278
522,36;-29,385;1472,6;111,29;9,3657
522,64;-3,8500;1494,0;141,54;9,7067
522,91;13,105;1540,7;140,59;8,3455
523,19;36,720;1563,3;156,54;7,8485
523,46;40,935;1576,7;183,14;9,2593
523,74;-7,6800;1563,6;134,29;9,0349
524,01;35,805;1614,2;174,09;8,7610
524,29;38,550;1633,8;197,14;9,9415
524,56;4,7850;1577,4;151,89;9,3542
524,84;4,2000;1527,5;140,59;8,9533
525,11;13,275;1503,3;163,79;10,101
525,39;11,940;1499,0;175,09;10,971
525,66;62,615;1591,9;195,44;8,6851
525,94;9,7600;1544,7;130,59;7,8719
526,21;-9,7850;1512,3;131,79;9,3015
526,49;40,510;1594,1;194,24;9,8949
526,76;21,725;1572,2;193,54;11,081
527,03;56,090;1626,7;200,64;9,2035
527,31;-2,4050;1564,0;128,49;8,3564
527,58;21,560;1562,2;189,49;10,900
527,86;45,985;1552,4;158,44;7,4651
528,13;9,5400;1508,3;161,64;10,148
528,41;3,3650;1620,0;146,09;8,8286
528,68;-0,8800;1680,9;137,59;8,2335
528,96;56,035;1805,5;217,79;9,2456
529,23;-21,890;1752,0;148,64;9,6132
529,50;19,015;1668,3;175,69;9,4996
529,78;36,690;1679,0;179,74;8,7101
530,05;-41,465;1563,1;110,09;9,4453
530,33;39,880;1645,0;178,44;8,6325
530,60;-21,815;1586,6;124,74;9,1118
530,87;-54,240;1554,1;112,89;10,391
531,15;62,975;1649,1;208,64;9,1833
531,42;44,360;1668,4;218,74;10,737
531,70;23,305;1654,8;153,74;7,9948
531,97;-13,720;1641,6;145,09;9,5939
532,25;24,135;1679,0;173,34;9,0159
532,52;70,290;1743,6;231,94;9,6605
532,79;15,325;1733,0;193,39;10,366
533,07;6,6600;1855,5;202,69;10,603
533,34;12,055;1936,1;204,29;9,9913
533,61;46,670;1992,0;229,29;9,3874
533,89;15,125;1971,3;202,39;9,5729
534,16;50,530;1971,2;251,04;10,439
534,44;-9,6750;1918,9;180,04;9,8370
534,71;4,3500;1928,9;160,94;8,1364
534,98;28,505;1974,8;223,89;10,039
535,26;-25,350;1916,9;151,99;9,1307
535,53;56,095;1982,3;239,29;9,5106
535,81;3,2500;1933,4;186,94;9,5167
536,08;12,145;1864,5;195,54;9,9008
536,35;-19,930;1799,2;149,54;9,3158
536,63;-22,325;1769,0;143,99;9,2843
536,90;12,020;1777,7;179,99;9,5128
537,17;-25,145;1766,7;138,59;9,1375
537,45;7,9300;1837,0;176,54;9,2180
537,72;41,655;1939,2;225,89;9,7092
537,99;-8,5600;1976,8;152,64;8,1193
538,27;-4,8650;1984,7;186,79;9,6328
538,54;5,6500;1983,2;201,99;9,9281
538,81;53,345;2066,3;231,49;8,8498
539,09;7,0500;1994,0;206,14;10,020
539,36;-9,1250;1988,3;179,14;9,4252
539,63;35,810;2004,7;224,14;9,5651
539,91;7,6150;1946,7;201,29;9,9880
540,18;134,23;2028,6;313,59;9,4681
540,45;22,745;1926,9;201,64;9,3950
540,73;-11,340;1929,3;172,79;9,4880
541,00;9,8050;1975,4;199,94;9,6729
541,27;4,7700;2007,1;167,84;8,1438
541,55;48,275;2021,5;246,29;10,035
541,82;46,730;2020,2;239,84;9,7854
542,09;43,375;2051,1;231,39;9,3646
542,37;93,340;2083,7;295,19;10,141
542,64;51,635;2070,9;214,79;8,0800
542,91;52,770;2026,6;266,14;10,810
543,19;-3,0850;1971,3;169,64;8,7482
543,46;18,760;2025,9;229,29;10,489
543,73;-7,8450;2016,6;179,09;9,2338
544,00;-13,190;2054,2;164,89;8,6138
544,28;-3,5450;2068,6;198,79;9,7644
544,55;52,440;2133,8;252,84;9,6284
544,82;5,1050;2106,2;213,84;9,9347
545,10;24,460;2090,8;227,84;9,8422
545,37;112,94;2118,7;290,59;8,8565
545,64;35,630;2015,8;215,54;9,0854
545,91;-15,185;1899,1;174,04;9,8849
546,19;24,400;1933,4;201,74;9,2893
546,46;11,145;1937,3;201,49;9,8819
546,73;20,130;1991,7;184,79;8,3516
547,01;21,155;2046,4;209,54;9,3017
547,28;58,930;2152,0;234,59;8,3923
547,55;19,215;2209,5;222,19;9,2668
547,82;47,540;2350,1;256,19;9,0615
548,10;68,675;2388,9;310,99;10,444
548,37;49,350;2331,9;290,19;10,551
548,64;-30,855;2200,4;165,94;8,8199
548,91;-5,0800;2079,2;185,39;9,1381
549,19;-15,235;1978,8;158,49;8,7121
549,46;21,650;2072,9;248,84;11,076
549,73;-30,335;1946,2;158,39;9,5482
550,00;81,150;2088,1;290,79;10,446
550,28;72,575;2119,5;256,69;8,9945
550,55;2,9500;2038,2;199,09;9,6370
550,82;44,405;2034,9;231,29;9,3890
551,09;27,490;2000,5;202,79;8,8848
551,36;93,595;2065,9;266,89;8,7862
551,64;49,330;2150,6;266,44;10,332
551,91;55,865;2256,6;266,14;9,5545
552,18;-25,640;2261,3;233,64;11,337
552,45;-5,9850;2296,5;183,14;8,2138
552,73;5,8800;2215,4;214,54;9,4437
553,00;1,7450;2153,2;201,89;9,3025
553,27;23,490;2216,8;233,24;9,5629
553,54;30,665;2202,3;262,09;10,656
553,81;26,130;2241,5;270,89;11,048
554,09;89,305;2282,1;294,14;9,3413
554,36;0,9700;2105,0;195,69;9,2545
554,63;-22,835;2083,5;197,04;10,439
554,90;-9,5800;2160,2;204,24;9,8542
555,17;22,745;2229,7;243,44;9,9999
555,44;15,200;2336,0;215,54;8,6323
555,72;-1,7250;2387,1;225,74;9,5220
555,99;46,690;2441,9;275,84;9,5671
556,26;48,785;2392,1;264,69;9,2136
556,53;-24,330;2252,8;200,64;9,8793
556,80;-18,055;2270,4;184,19;8,8376
557,08;37,350;2261,3;245,24;9,3479
557,35;11,085;2270,8;232,89;9,8154
557,62;111,35;2461,9;339,69;9,7142
557,89;23,815;2354,6;247,19;9,5837
558,16;12,170;2332,4;241,89;9,9005
558,43;42,355;2350,9;261,94;9,5117
558,70;-7,1000;2266,6;233,59;10,586
558,98;-14,505;2258,6;191,79;9,0753
559,25;27,740;2343,8;257,74;9,9307
559,52;7,9550;2378,6;252,09;10,298
559,79;49,300;2510,6;280,39;9,3888
560,06;-24,815;2529,8;215,99;9,4262
560,33;22,570;2646,8;285,54;10,021
560,60;102,06;2793,7;348,44;9,1537
560,88;17,560;2706,0;256,19;8,8761
561,15;26,615;2700,0;290,09;9,8556
561,42;-2,3100;2697,6;265,89;9,9337
561,69;-6,9650;2607,0;253,79;9,9755
561,96;-2,5900;2610,5;241,34;9,3347
562,23;-34,635;2545,9;201,89;9,1657
562,50;68,780;2667,2;318,84;9,6234
562,77;-2,6150;2634,5;259,59;9,9427
563,05;-25,120;2625,4;219,34;9,2230
563,32;-17,525;2694,9;242,99;9,6043
563,59;15,410;2740,5;280,74;9,7366
563,86;28,155;2781,6;294,29;9,6654
564,13;53,270;2852,3;321,74;9,5916
564,40;12,525;2788,1;280,89;9,6688
564,67;-6,8400;2788,1;255,39;9,3824
564,94;54,435;2913,9;361,69;10,745
565,21;34,410;2823,5;308,19;9,8159
565,48;66,175;2830,4;323,44;9,3067
565,76;3,0100;2847,2;305,69;10,642
566,03;19,425;2818,9;292,89;9,7683
566,30;11,870;2831,5;303,69;10,350
566,57;3,9550;2898,4;287,09;9,7820
566,84;-17,220;2910,5;268,09;9,7451
567,11;0,6750;3073,2;293,64;9,5350
567,38;57,280;3208,8;366,14;9,8004
567,65;30,945;3189,5;347,14;10,011
567,92;-34,080;3194,0;284,34;9,8640
568,19;69,625;3271,4;384,29;9,8277
568,46;-32,460;3304,3;298,79;9,9271
568,73;-34,155;3364,3;278,89;9,2113
569,00;77,700;3551,2;444,09;10,548
569,27;73,205;3772,9;425,84;9,5313
569,54;-2,2700;3844,4;375,94;9,8321
569,82;86,615;4111,8;489,34;10,005
570,09;-11,710;4000,0;371,84;9,5607
570,36;11,535;3976,3;400,74;9,8166
570,63;15,320;4043,9;403,94;9,6465
570,90;37,385;4148,7;435,89;9,6927
571,17;9,4100;4160,5;412,99;9,7223
571,44;49,445;4323,1;463,39;9,6858
571,71;27,890;4488,7;476,24;10,051
571,98;-2,5250;4214,8;402,99;9,6155
572,25;-19,020;4126,4;381,04;9,6507
572,52;15,795;3936,7;406,54;9,9657
572,79;17,750;3907,3;399,49;9,8146
573,06;15,855;4098,9;403,19;9,4864
573,33;68,540;4356,5;491,74;9,8694
573,60;4,8550;4485,8;448,29;9,8961
573,87;9,9100;4674,4;467,14;9,8023
574,14;-11,105;4688,5;431,59;9,4198
574,41;53,480;4658,1;496,99;9,6317
574,68;10,855;4709,0;470,44;9,7822
574,95;40,530;4689,2;501,49;9,9159
575,22;59,475;4435,8;476,14;9,5208
575,49;7,4500;4331,5;428,54;9,7383
575,76;21,485;4168,3;441,04;10,117
576,03;0,06000;4209,6;426,94;10,141
576,30;15,965;4317,4;432,99;9,6951
576,57;-14,860;4534,7;434,79;9,8833
576,84;-7,8150;4584,7;430,64;9,5470
577,11;74,860;4684,1;528,19;9,8352
577,38;65,675;5056,4;576,49;10,235
577,65;48,570;5238,2;557,99;9,8161
577,92;7,4550;5307,4;529,04;9,8414
578,19;-2,8300;5215,1;510,39;9,8357
578,46;-25,565;4858,6;459,99;9,9413
578,73;11,050;4442,1;462,74;10,194
579,00;5,9550;4154,7;409,54;9,7278
579,26;10,630;4384,2;450,44;10,056
579,53;5,7750;4316,1;421,89;9,6538
579,80;46,040;4485,1;474,99;9,6629
580,07;15,265;4676,4;500,44;10,409
580,34;4,6400;4578,2;480,14;10,397
580,61;16,505;4460,2;447,99;9,7100
580,88;-14,210;4618,9;456,34;10,156
581,15;-7,9050;5368,7;512,14;9,6724
581,42;-13,400;5527,0;534,89;9,8963
581,69;-22,105;5828,6;573,19;10,175
581,96;0,9100;5958,0;578,04;9,6882
582,23;0,6250;5213,9;520,89;9,9795
582,50;58,820;4892,4;518,49;9,5098
582,77;18,105;4585,8;458,14;9,6336
583,04;3,4900;4185,2;440,39;10,448
583,30;-26,125;3918,3;361,74;9,8332
583,57;49,750;3935,4;427,34;9,7175
583,84;-16,105;3978,1;363,39;9,5010
584,11;78,540;4149,6;479,94;9,8598
584,38;70,405;4255,7;495,14;10,148
584,65;8,1500;4528,1;465,39;10,116
584,92;75,195;4696,8;532,94;9,9044
585,19;36,780;4693,5;513,39;10,235
585,46;-9,8150;4739,5;460,59;9,9046
585,73;9,8600;4582,2;461,84;9,8851
585,99;32,285;4293,6;464,04;10,132
586,26;47,430;4179,5;449,24;9,7241
586,53;9,9650;3965,6;388,19;9,5616
586,80;19,250;4098,6;451,44;10,595
587,07;25,515;4180,6;465,64;10,592
587,34;18,180;4329,6;430,44;9,5619
587,61;58,325;4383,8;479,54;9,7381
587,88;-9,5000;4156,2;401,79;9,8732
588,14;-12,765;4076,9;413,79;10,430
588,41;-3,1200;4037,7;386,04;9,6307
588,68;20,845;3915,5;392,94;9,5538
588,95;0,2800;3824,9;378,19;9,8808
589,22;23,185;3776,9;398,94;10,010
589,49;66,190;3761,6;436,24;10,014
589,76;35,685;3743,0;389,49;9,5434
590,02;1,7100;3723,3;367,74;9,8352
590,29;32,315;3756,8;406,44;10,045
590,56;52,700;3718,6;404,59;9,5990
590,83;3,2250;3602,7;359,99;9,9114
591,10;-16,890;3566,3;370,04;10,798
591,37;-17,995;3569,9;307,44;9,0702
591,63;38,120;3631,3;416,99;10,544
591,90;14,405;3586,4;374,34;10,077
592,17;36,270;3653,6;383,04;9,5863
592,44;-25,255;3751,9;364,09;10,308
592,71;-31,330;3825,8;364,74;10,269
592,97;31,405;3952,3;402,89;9,4744
593,24;3,6000;3989,1;414,19;10,302
593,51;18,755;3888,9;415,34;10,247
593,78;-2,3300;3745,8;351,59;9,4425
594,05;3,0350;3670,9;377,69;10,215
594,32;153,79;3737,7;500,64;9,6778
594,58;11,315;3635,9;361,29;9,6555
594,85;-15,070;3651,3;355,64;10,111
595,12;105,32;3807,3;442,74;9,1144
595,39;-2,0600;3698,6;362,04;9,8387
595,65;36,035;3703,2;405,74;10,082
595,92;8,8800;3597,4;362,34;9,8498
596,19;10,125;3554,5;375,39;10,305
596,46;47,770;3562,0;391,79;9,7893
596,73;0,1150;3516,8;350,34;9,9589
596,99;32,260;3546,8;373,09;9,6976
597,26;67,755;3597,8;427,89;10,202
597,53;16,550;3588,7;367,59;9,8272
597,80;21,615;3543,8;393,09;10,547
598,06;-17,140;3486,1;312,44;9,4078
598,33;50,305;3586,8;422,09;10,513
598,60;60,660;3632,4;414,19;9,8980
598,87;10,225;3639,8;371,29;9,9477
599,13;5,7300;3616,3;396,69;10,828
599,40;-31,165;3584,6;323,99;9,8223
599,67;20,170;3589,2;370,94;9,8281
599,94;19,835;3579,6;376,34;10,015
600,20;13,220;3593,4;384,34;10,366
600,47;-14,175;3543,8;345,44;10,107
600,74;62,850;3616,3;400,79;9,5100
601,01;19,055;3580,6;377,19;10,056
601,27;31,200;3569,8;404,64;10,553
601,54;-10,745;3532,7;321,94;9,3887
601,81;31,530;3536,3;409,19;10,776
602,08;4,2450;3484,4;367,24;10,430
602,34;-12,050;3483,5;312,89;9,2958
602,61;-12,715;3475,0;342,74;10,192
602,88;30,350;3531,2;380,14;9,9916
603,14;37,975;3584,4;397,59;10,140
603,41;38,310;3574,0;391,34;9,9848
603,68;43,735;3590,9;386,84;9,6726
603,95;72,910;3591,4;423,09;9,9524
604,21;-0,6750;3476,3;355,79;10,252
604,48;47,420;3488,0;402,59;10,323
604,75;-6,1950;3403,2;321,04;9,5979
605,01;-28,780;3414,2;315,64;10,003
605,28;26,365;3464,7;369,54;9,9807
605,55;8,7100;3476,2;371,19;10,454
605,81;25,155;3514,2;386,49;10,356
606,08;13,960;3468,7;362,54;10,090
606,35;39,155;3497,0;362,64;9,3550
606,61;-30,540;3404,2;316,49;10,103
606,88;-13,775;3396,7;322,64;9,8640
607,15;-10,840;3419,6;332,99;10,023
607,41;-28,685;3386,0;290,74;9,3545
607,68;70,460;3503,7;424,09;10,300
607,95;31,915;3430,1;382,64;10,321
608,21;9,5800;3412,5;345,14;9,8608
608,48;72,665;3453,7;422,69;10,353
608,75;28,950;3411,8;363,94;9,9024
609,01;-6,8650;3376,6;352,44;10,620
609,28;-3,5300;3361,5;345,79;10,381
609,55;-30,915;3348,1;322,14;10,448
609,81;27,520;3403,7;369,84;10,139
610,08;-1,2950;3394,0;342,19;10,116
610,35;-2,8700;3384,0;304,14;9,0647
610,61;25,715;3438,0;396,19;10,857
610,88;57,800;3411,3;398,44;10,158
611,14;-8,5650;3350,4;318,59;9,7396
611,41;39,550;3399,0;381,69;10,184
611,68;3,4150;3359,8;323,34;9,5319
611,94;95,960;3454,2;432,14;10,011
612,21;9,5950;3355,8;342,74;9,9559
612,48;92,170;3428,9;437,84;10,359
612,74;53,005;3381,2;388,44;10,079
613,01;15,690;3333,3;334,59;9,6122
613,27;-44,365;3298,0;295,39;10,165
613,54;-28,170;3304,5;325,79;10,621
613,81;26,225;3338,2;352,59;9,8539
614,07;-5,8200;3315,1;351,89;10,771
614,34;27,885;3359,7;368,84;10,233
614,60;83,520;3395,9;426,69;10,360
614,87;29,815;3344,0;372,29;10,334
615,14;47,160;3359,4;394,39;10,483
615,40;2,9850;3328,6;329,69;9,8239
615,67;70,650;3368,0;436,69;11,101
615,93;42,965;3311,5;365,99;9,8827
616,20;90,420;3364,3;408,19;9,7062
616,46;32,445;3308,6;365,19;10,156
616,73;26,880;3297,2;359,14;10,160
617,00;-1,9250;3266,2;326,74;10,057
617,26;31,400;3292,5;334,69;9,3003
617,53;-28,575;3240,7;299,74;10,042
617,79;67,580;3354,8;409,99;10,416
618,06;-3,1950;3283,5;338,94;10,410
618,32;-0,05000;3253,3;317,89;9,7728
618,59;13,815;3252,2;329,59;9,7508
618,85;-4,4600;3245,3;342,59;10,679
619,12;49,375;3293,9;388,04;10,438
619,39;-3,7700;3220,2;313,09;9,8283
619,65;-10,795;3235,3;306,79;9,7837
619,92;-2,5100;3230,4;334,84;10,435
620,18;-1,2150;3225,1;336,49;10,467
620,45;12,790;3247,6;332,79;9,8924
620,71;24,135;3243,0;365,64;10,609
620,98;35,520;3221,9;360,64;10,203
621,24;0,9650;3170,7;314,59;9,8941
621,51;-15,630;3171,7;314,59;10,360
621,77;32,125;3216,9;351,29;10,022
622,04;27,220;3229,7;354,59;10,222
622,30;9,0150;3199,9;336,94;10,277
622,57;-19,160;3172,8;295,89;9,8701
622,83;6,4350;3209,2;337,09;10,324
623,10;48,610;3241,0;382,99;10,474
623,36;5,8450;3205,4;310,34;9,5167
623,63;47,140;3247,9;356,94;9,6789
623,89;22,165;3206,8;332,39;9,7411
624,16;1,1600;3165,9;355,69;11,202
624,42;11,445;3182,3;328,94;10,013
624,69;18,060;3193,8;379,19;11,371
624,95;3,0650;3177,7;314,54;9,8112
625,22;34,100;3186,0;325,84;9,2559
625,48;31,775;3175,9;381,74;11,131
625,75;80,480;3216,7;384,19;9,6839
626,01;57,405;3182,1;372,04;10,069
626,28;67,610;3184,2;376,39;9,9076
626,54;11,835;3141,2;287,89;8,8213
626,80;-14,690;3091,3;318,39;10,724
627,07;29,465;3153,4;332,89;9,7128
627,33;-2,1500;3121,8;320,44;10,326
627,60;36,745;3151,0;336,39;9,6215
627,86;-11,970;3099,1;295,54;9,8843
628,13;39,765;3137,7;354,49;10,159
628,39;59,790;3139,5;375,14;10,240
628,66;38,085;3151,2;359,84;10,335
628,92;48,110;3140,0;370,49;10,427
629,19;-2,9450;3106,7;335,64;10,888
629,45;5,9700;3103,6;338,69;10,741
629,71;24,765;3128,5;339,54;10,142
629,98;4,7800;3091,7;325,59;10,392
630,24;62,115;3169,0;386,24;10,432
630,51;-20,800;3062,6;299,09;10,375
630,77;-17,595;3064,0;298,49;10,257
631,03;14,580;3101,6;331,29;10,259
631,30;44,295;3125,8;376,14;10,769
631,56;46,570;3131,2;350,99;9,8687
631,83;-18,345;3060,3;318,84;10,952
632,09;59,080;3141,3;374,99;10,249
632,36;-3,7150;3079,8;310,14;10,178
632,62;61,860;3146,8;369,44;9,9702
632,88;20,375;3091,2;327,24;9,9929
633,15;41,330;3126,5;368,44;10,603
633,41;0,5350;3104,1;312,04;10,037
633,67;44,630;3124,0;368,79;10,527
633,94;-5,5050;3084,1;301,84;9,9478
634,20;60,290;3164,1;389,79;10,616
634,47;8,0950;3098,1;329,69;10,408
634,73;-9,6200;3103,8;306,09;10,140
634,99;35,415;3141,6;358,19;10,391
635,26;29,830;3148,2;353,49;10,379
635,52;21,005;3123,2;324,09;9,7699
635,78;17,890;3138,2;337,04;10,228
636,05;27,365;3149,8;361,49;10,701
636,31;88,010;3220,4;430,79;10,943
636,58;24,835;3144,6;348,34;10,370
636,84;55,350;3186,6;381,04;10,401
637,10;14,735;3133,0;333,24;10,214
637,37;78,270;3208,0;427,69;11,164
637,63;37,075;3152,3;366,74;10,582
637,89;87,860;3217,3;419,39;10,594
638,16;21,505;3155,3;338,19;10,105
638,42;41,040;3165,2;366,54;10,419
638,68;31,375;3181,6;339,39;9,7774
638,95;47,930;3182,9;371,44;10,319
639,21;13,775;3178,8;341,44;10,353
639,47;102,27;3235,9;431,84;10,517
639,74;8,5550;3150,2;316,19;9,7922
640,00;27,110;3175,2;364,59;10,720
640,26;68,685;3213,4;391,34;10,260
640,53;45,830;3195,9;384,89;10,763
640,79;63,815;3219,9;397,39;10,569
641,05;41,350;3189,3;362,34;10,197
641,31;19,725;3183,1;343,54;10,236
641,58;50,500;3213,9;380,39;10,428
641,84;43,875;3202,0;383,79;10,763
642,10;31,930;3189,7;353,54;10,185
642,37;36,545;3196,9;376,49;10,756
642,63;41,420;3206,1;354,24;9,8846
642,89;26,905;3187,6;347,89;10,155
643,16;28,650;3214,9;364,24;10,532
643,42;7,6050;3200,8;336,94;10,313
643,68;54,600;3247,9;397,84;10,749
643,94;27,735;3211,8;383,19;11,164
644,21;40,160;3212,1;360,34;10,094
644,47;40,175;3229,5;357,89;9,9617
644,73;87,820;3274,0;434,44;10,879
644,99;73,555;3274,7;399,94;10,196
645,26;3,2200;3200,8;331,99;10,282
645,52;3,5450;3210,4;342,64;10,574
645,78;65,450;3246,8;410,74;10,853
646,04;2,6350;3195,9;332,89;10,342
646,31;6,4200;3215,6;352,19;10,774
646,57;28,715;3219,9;338,29;9,7009
646,83;11,540;3200,2;347,89;10,548
647,09;-20,515;3172,1;314,94;10,507
647,36;13,530;3210,1;351,74;10,580
647,62;-25,945;3164,2;304,79;10,367
647,88;40,790;3234,9;387,09;10,842
648,14;46,825;3255,7;369,19;10,046
648,41;108,50;3321,5;469,79;11,245
648,67;21,435;3233,6;336,29;9,8020
648,93;25,730;3246,6;369,24;10,665
649,19;-35,505;3158,2;303,89;10,627
649,45;59,760;3269,7;398,44;10,551
649,72;1,1050;3212,3;350,49;10,880
649,98;10,820;3214,8;327,99;9,8993
650,24;40,465;3242,2;379,19;10,579
650,50;41,440;3242,5;373,99;10,389
650,76;25,995;3218,4;356,04;10,338
651,03;60,160;3281,9;414,74;11,006
651,29;67,305;3255,5;439,39;11,671
651,55;23,660;3220,6;329,39;9,5631
651,81;60,995;3263,2;385,04;10,119
652,07;23,280;3213,9;357,69;10,481
652,34;40,735;3241,2;387,94;10,849
652,60;56,510;3255,8;380,34;10,122
652,86;39,665;3236,3;371,69;10,387
653,12;20,580;3213,8;352,94;10,408
653,38;28,155;3227,9;379,84;10,991
653,64;11,180;3202,5;357,54;10,853
653,91;97,105;3272,0;411,09;9,8895
654,17;28,390;3222,7;380,54;11,024
654,43;11,835;3207,6;351,79;10,638
654,69;70,800;3263,0;391,74;10,054
654,95;52,545;3252,7;415,79;11,351
655,21;34,370;3246,8;379,74;10,751
655,48;33,905;3508,0;380,14;9,9662
655,74;72,070;5283,1;605,89;10,244
656,00;4,5750;5668,9;597,09;10,461
656,26;62,510;5711,0;664,14;10,651
656,52;12,935;5495,7;601,74;10,739
656,78;44,810;4302,6;493,34;10,534
657,04;-6,7950;3286,0;336,19;10,416
657,30;44,510;3227,8;384,94;10,694
657,57;54,595;3264,1;381,94;10,199
657,83;147,97;3322,7;498,14;11,030
658,09;-25,925;3171,6;304,64;10,338
658,35;-18,420;3172,7;316,94;10,509
658,61;63,525;3241,5;384,69;10,106
658,87;-24,340;3154,6;316,14;10,710
659,13;26,595;3193,6;363,19;10,628
659,39;-26,000;3150,3;308,24;10,523
659,65;13,135;3183,1;355,14;10,789
659,92;4,8000;3167,8;351,29;10,954
660,18;45,305;3215,5;372,34;10,316
660,44;17,560;3181,9;382,64;11,537
660,70;19,485;3192,8;382,84;11,450
660,96;18,270;3184,4;361,19;10,831
661,22;47,865;3219,2;377,04;10,380
661,48;112,35;3277,6;428,14;9,9768
661,74;39,915;3220,5;391,69;11,060
662,00;17,520;3216,4;369,19;10,994
662,26;76,755;3279,3;412,39;10,480
662,52;40,260;3254,3;394,89;11,034
662,78;22,405;3235,4;345,59;10,059
663,04;92,070;3305,3;436,94;10,733
663,31;29,665;3271,9;373,34;10,600
663,57;80,540;3324,6;433,44;10,878
663,83;122,18;3373,7;472,49;10,773
664,09;-7,6500;3250,0;331,54;10,412
664,35;12,465;3296,9;379,14;11,164
664,61;82,280;3377,7;459,09;11,434
664,87;50,555;3338,5;404,59;10,768
665,13;73,200;3389,4;433,14;10,854
665,39;38,555;3357,1;398,64;10,851
665,65;136,93;3466,4;498,54;10,861
665,91;37,255;3380,0;428,19;11,695
666,17;81,880;3423,6;423,49;10,222
666,43;23,675;3364,2;390,09;10,969
666,69;-17,870;3337,0;335,74;10,540
666,95;-19,455;3338,0;337,19;10,622
667,21;-15,710;3357,9;366,54;11,331
667,47;-16,165;3374,2;359,04;11,067
667,73;9,0300;3394,1;360,54;10,384
667,99;-3,6650;3398,2;345,74;10,271
668,25;8,7000;3424,1;377,69;10,804
668,51;2,9750;3414,4;396,39;11,532
668,77;48,980;3470,8;425,34;10,999
669,03;-15,475;3411,7;362,74;11,036
669,29;-31,470;3395,5;340,49;10,854
669,55;10,565;3447,0;381,64;10,798
669,81;9,7600;3446,5;414,79;11,785
670,07;25,725;3472,0;404,39;10,987
670,33;101,17;3539,5;474,09;10,846
670,59;144,71;3588,2;517,74;10,833
670,85;78,900;3531,6;430,34;10,179
671,11;70,115;3512,8;464,94;11,468
671,37;41,540;3485,6;435,89;11,450
671,63;70,225;3520,2;434,79;10,567
671,89;20,020;3479,8;406,64;11,175
672,15;-3,3450;3451,7;373,44;10,905
672,41;66,430;3525,9;461,44;11,418
672,67;-23,175;3428,3;356,34;10,996
672,93;71,890;3511,1;459,14;11,260
673,19;12,875;3435,2;387,69;10,952
673,44;33,880;3448,9;423,19;11,400
673,70;34,915;3445,7;413,49;11,099
673,96;-21,550;3388,3;346,04;10,780
674,22;41,165;3437,7;419,29;11,133
674,48;95,380;3478,3;477,34;11,291
674,74;86,305;3465,5;485,89;11,825
675,00;43,860;3422,3;439,89;11,722
675,26;24,255;3390,8;391,19;10,900
675,52;27,630;3394,7;396,39;10,952
675,78;-27,245;3348,0;360,44;11,486
676,04;40,590;3399,2;425,29;11,454
676,30;18,175;3356,8;388,99;11,107
676,56;14,430;3350,7;396,79;11,461
676,81;27,305;3362,9;401,84;11,228
677,07;109,35;3446,4;487,99;11,347
677,33;-18,155;3310,7;373,94;11,779
677,59;-25,890;3309,8;348,09;11,211
677,85;44,005;3371,9;429,34;11,579
678,11;-14,950;3315,2;378,64;11,819
678,37;-6,9550;3316,4;371,29;11,381
678,63;10,410;3324,2;402,69;11,838
678,89;81,585;3385,1;442,24;10,917
679,14;64,360;3369,9;449,14;11,640
679,40;10,095;3309,2;381,69;11,264
679,66;-9,5200;3311,0;373,54;11,536
679,92;3,9150;3302,7;365,09;10,949
680,18;12,890;3309,8;384,39;11,268
680,44;-2,4850;3320,5;376,09;11,393
680,70;24,730;3317,2;406,69;11,601
680,95;13,375;3311,6;380,09;11,119
681,21;15,410;3306,9;384,64;11,218
681,47;109,25;3405,6;483,29;11,347
681,73;-26,510;3283,0;343,74;11,187
681,99;-3,4150;3289,3;405,54;12,420
682,25;101,40;3403,8;472,09;11,225
682,51;36,395;3334,2;406,74;11,230
682,76;25,660;3321,1;398,14;11,303
683,02;25,355;3312,6;400,34;11,407
683,28;27,860;3327,4;404,54;11,416
683,54;5,000E-3;3300,8;373,49;11,315
683,80;69,350;3375,0;456,64;11,716
684,05;39,275;3361,1;424,79;11,606
684,31;-2,5500;3301,3;374,99;11,427
684,57;-7,3150;3302,9;364,79;11,241
684,83;-6,8900;3307,6;375,64;11,541
685,09;33,835;3355,8;411,89;11,380
685,35;27,970;3362,3;423,49;11,862
685,60;35,065;3373,1;415,99;11,412
685,86;25,770;3351,4;411,29;11,592
686,12;38,055;3372,2;440,59;12,073
686,38;-8,3600;3319,8;380,09;11,672
686,64;2,5650;3334,4;396,89;11,835
686,89;27,130;3360,8;401,14;11,219
687,15;-7,1850;3343,0;399,69;12,145
687,41;66,740;3422,8;478,94;12,282
687,67;10,235;3353,4;392,84;11,444
687,92;17,130;3374,2;428,69;12,260
688,18;70,705;3417,4;439,69;11,025
688,44;64,520;3403,6;457,99;11,784
688,70;-9,9450;3334,3;391,84;12,014
688,95;80,260;3431,6;485,14;12,081
689,21;20,675;3381,7;423,84;11,995
689,47;92,890;3468,0;470,14;11,177
689,73;69,435;3445,6;477,89;12,098
689,98;5,7300;3389,2;429,09;12,512
690,24;82,135;3463,7;502,89;12,443
690,50;6,8700;3399,6;398,94;11,556
690,76;64,565;3446,7;448,54;11,353
691,01;24,110;3420,1;427,84;11,888
691,27;-4,5350;3402,1;429,54;12,742
691,53;41,580;3468,1;444,64;11,763
691,79;29,295;3436,4;434,49;11,893
692,04;110,91;3515,7;517,54;11,943
692,30;31,085;3424,6;419,29;11,439
692,56;106,47;3525,5;549,39;12,954
692,81;57,965;3466,6;473,14;12,180
693,07;-18,620;3405,6;421,44;12,851
693,33;-7,7350;3420,6;413,89;12,298
693,59;76,460;3521,3;522,09;12,936
693,84;-32,125;3403,0;392,74;12,368
694,10;2,0200;3423,4;432,99;12,596
694,36;48,165;3462,2;464,29;12,188
694,61;43,620;3465,4;475,34;12,617
694,87;45,305;3453,3;470,84;12,486
695,13;-8,5300;3418,3;423,39;12,604
695,38;25,265;3439,6;461,74;12,784
695,64;13,950;3411,6;431,69;12,295
695,90;6,9950;3421,5;436,94;12,592
696,15;68,300;3477,1;482,74;12,158
696,41;12,055;3415,4;432,54;12,355
696,67;-8,3800;3398,9;443,79;13,271
696,92;7,5750;3416,0;442,14;12,750
697,18;18,680;3445,8;467,04;13,083
697,44;76,695;3489,7;494,09;12,229
697,69;54,690;3461,2;494,54;12,912
697,95;80,205;3481,8;521,44;12,971
698,21;47,760;3433,9;485,74;12,934
698,46;33,565;3414,7;469,29;12,887
698,72;31,180;3400,5;456,99;12,638
698,98;15,735;3385,4;447,34;12,808
699,23;27,490;3402,4;456,19;12,702
699,49;22,875;3382,9;463,69;13,119
699,75;14,050;3363,1;443,84;12,833
700,00;21,385;3374,7;437,54;12,410
